## frequency[GHz]  I  Q  LogM[dB] Phase[deg]
3000000000.0 -0.00356675 -0.00576605 -43.37534583132506 -121.740011370098
3000400000.0 -0.004345323 -0.005262754 -43.318153253386164 -129.5456265909896
3000800000.0 -0.004601319 -0.004809821 -43.53532412755207 -133.73083062818625
3001200000.0 -0.005215664 -0.004307867 -43.39505736394017 -140.44506622816337
3001600000.0 -0.0056422 -0.003759463 -43.37544553018685 -146.3240211429943
3002000000.0 -0.006003891 -0.003099523 -43.405235440165164 -152.69484753103396
3002400000.0 -0.00613028 -0.002446288 -43.60865692424145 -158.24553103392466
3002800000.0 -0.006383634 -0.001664183 -43.61308238279494 -165.38847807952945
3003200000.0 -0.006560632 -0.001062675 -43.54861093171374 -170.79928106498312
3003600000.0 -0.006642797 -0.0003350434 -43.541946390759485 -177.11261393121902
3004000000.0 -0.006711246 0.000275268 -43.45663681164687 177.65127678579464
3004400000.0 -0.006496636 0.001044632 -43.635368247138814 170.8652688805613
3004800000.0 -0.006472473 0.001758984 -43.46913628987281 164.79627386141948
3005200000.0 -0.006227365 0.002300022 -43.55855214644184 159.72873835969898
3005600000.0 -0.005859243 0.002957158 -43.657695520823665 153.21993708967722
3006000000.0 -0.0054611 0.00357831 -43.70305902089943 146.76573496952182
3006400000.0 -0.005132898 0.00408088 -43.66529287581632 141.51375421045438
3006800000.0 -0.004609087 0.004626748 -43.70076076505734 134.89043767795667
3007200000.0 -0.004121216 0.005145851 -43.61868271270915 128.69058561015135
3007600000.0 -0.003523675 0.005467529 -43.735553439225114 122.80068862224446
3008000000.0 -0.002943802 0.005774219 -43.76672385708065 117.01331517281923
3008400000.0 -0.002321676 0.006090597 -43.71758742246469 110.86635717829174
3008800000.0 -0.001637931 0.00646491 -43.51855928345701 104.21713432829392
3009200000.0 -0.0009289174 0.006445155 -43.72604332674448 98.20136186297158
3009600000.0 -0.000277374 0.006386742 -43.88622888202595 92.48677324487073
3010000000.0 0.0003752542 0.006465455 -43.773412957611875 86.67828664574405
3010400000.0 0.0009986219 0.006367575 -43.814994568542424 81.08694707214035
3010800000.0 0.001659509 0.006202841 -43.84795022605252 75.02186879844551
3011200000.0 0.002309708 0.006067725 -43.75181425794952 69.16043808868069
3011600000.0 0.003058982 0.00577658 -43.693052493987274 62.0965889327493
3012000000.0 0.003639272 0.005259922 -43.88159054088979 55.32114135163146
3012400000.0 0.004079034 0.004993278 -43.812059391553845 50.75444029182533
3012800000.0 0.004641151 0.004415401 -43.868344645566786 43.57210069476205
3013200000.0 0.005077834 0.003934977 -43.843819253690626 37.77325675203718
3013600000.0 0.005500843 0.003347537 -43.823154219687964 31.322595656448826
3014000000.0 0.005705442 0.002878044 -43.889652525885516 26.76813078512118
3014400000.0 0.005983425 0.002152333 -43.93254237648601 19.78446395358366
3014800000.0 0.00616258 0.001508063 -43.9521635254711 13.750783064394772
3015200000.0 0.006205668 0.0008558442 -44.06240183183471 7.8523165887463895
3015600000.0 0.006192514 0.0001641613 -44.159609078065955 1.5185346770361716
3016000000.0 0.006296182 -0.0003979316 -44.00114119911638 -3.6164005169415647
3016400000.0 0.006207689 -0.001224345 -43.97566422086545 -11.15726859299287
3016800000.0 0.006005344 -0.001786346 -44.06102931858833 -16.565604352331153
3017200000.0 0.005854114 -0.002538075 -43.902724905173116 -23.439340205177505
3017600000.0 0.005589775 -0.002951817 -43.98387473916513 -27.83738668687208
3018000000.0 0.005243653 -0.003528205 -43.98547062805298 -33.93473645283013
3018400000.0 0.004704469 -0.004223294 -43.98284966959097 -41.91494404306839
3018800000.0 0.004327149 -0.004492064 -44.10018498199966 -46.07127839722575
3019200000.0 0.003779554 -0.004894059 -44.175179842594886 -52.322027945858366
3019600000.0 0.0031157 -0.005325408 -44.19444994943024 -59.66967009642413
3020000000.0 0.002632158 -0.00565307 -44.10212802008628 -65.03257504947021
3020400000.0 0.001979989 -0.005870576 -44.15849554266826 -71.36211874337869
3020800000.0 0.001492884 -0.006166373 -43.95203272175919 -76.39050822949282
3021200000.0 0.0007715778 -0.006177291 -44.11680591749294 -82.88031323024762
3021600000.0 0.0001365884 -0.00619851 -44.15214557871052 -88.7376526720858
3022000000.0 -0.0004922966 -0.006220145 -44.096870410655214 -94.5252711125561
3022400000.0 -0.001163901 -0.006132292 -44.09384722454916 -100.74683444704665
3022800000.0 -0.001795749 -0.005879587 -44.22574179313641 -106.98376884496727
3023200000.0 -0.002374443 -0.005720381 -44.161130423707334 -112.54259301679178
3023600000.0 -0.002960262 -0.005395094 -44.217025116290756 -118.75336368603695
3024000000.0 -0.003488205 -0.005025919 -44.268099245666136 -124.76231926524393
3024400000.0 -0.004052247 -0.004646712 -44.20071988367149 -131.0906284405118
3024800000.0 -0.004410073 -0.004135386 -44.37110702891533 -136.8410934480809
3025200000.0 -0.005020323 -0.003696817 -44.10384353736858 -143.63317044258721
3025600000.0 -0.005274401 -0.003156635 -44.22696085432215 -149.10023097609422
3026000000.0 -0.005531534 -0.002599239 -44.27663911327638 -154.83141315161646
3026400000.0 -0.005772239 -0.002042453 -44.260804201852515 -160.51414891817873
3026800000.0 -0.005994625 -0.001384768 -44.218984182294065 -166.99274293919194
3027200000.0 -0.006058265 -0.0006705847 -44.30014778418702 -173.68368647267172
3027600000.0 -0.006156885 5.699469e-05 -44.212407018911335 179.46962434449355
3028000000.0 -0.006010178 0.0005338741 -44.388119910406026 174.92383448767828
3028400000.0 -0.005845713 0.001117742 -44.50730505593543 169.1752941200237
3028800000.0 -0.005853822 0.001943124 -44.197256664088876 161.63687432615822
3029200000.0 -0.005498382 0.002386311 -44.445828561771215 156.53904063151614
3029600000.0 -0.005317954 0.002946054 -44.32269577730899 151.0143098724915
3030000000.0 -0.004774029 0.003456351 -44.591987506533705 144.09582377006586
3030400000.0 -0.004470348 0.003895809 -44.53934594586208 138.9285727129066
3030800000.0 -0.004027969 0.004456442 -44.42680396505973 132.10895003444568
3031200000.0 -0.003546994 0.004787 -44.498140332671035 126.53710905059722
3031600000.0 -0.003065828 0.005166978 -44.42529335971085 120.68278807001225
3032000000.0 -0.002350511 0.005463717 -44.51277704291197 113.27755160336692
3032400000.0 -0.001915411 0.005656065 -44.478202372999675 108.70853039331642
3032800000.0 -0.001269065 0.005880577 -44.41390874766771 102.17802404865502
3033200000.0 -0.0006076688 0.005999804 -44.392936052881105 95.78327814417982
3033600000.0 5.178425e-05 0.00590442 -44.576121099309646 89.49750476776535
3034000000.0 0.0005719917 0.005909771 -44.52809243753399 84.47170702332991
3034400000.0 0.001256511 0.005856236 -44.45216322491479 77.89024632233689
3034800000.0 0.001777702 0.005663904 -44.52963694532268 72.57474531203175
3035200000.0 0.002520549 0.005446871 -44.43437350902219 65.16757808392603
3035600000.0 0.003024184 0.005103373 -44.53579439255685 59.34963979023681
3036000000.0 0.003537773 0.004772646 -44.52299270725379 53.451927775364474
3036400000.0 0.003914607 0.004413466 -44.58385438645433 48.4279722187974
3036800000.0 0.004326155 0.003892091 -44.70261880009913 41.97661183870675
3037200000.0 0.004748758 0.003561781 -44.53001240748642 36.87153850828505
3037600000.0 0.004995373 0.002933611 -44.74180313680415 30.42425303420986
3038000000.0 0.005348112 0.002343715 -44.673054588639744 23.664581416384568
3038400000.0 0.0055787 0.001839629 -44.62103764113712 18.2504596641846
3038800000.0 0.005854454 0.001284315 -44.44614143768952 12.373202783788457
3039200000.0 0.005830976 0.0006210078 -44.636192025210846 6.079172163248081
3039600000.0 0.005891427 -5.695323e-06 -44.59558592622135 -0.055388595871926176
3040000000.0 0.005848529 -0.0006116906 -44.61181832553609 -5.970788557906248
3040400000.0 0.005659798 -0.001256573 -44.73501909670519 -12.517617891103722
3040800000.0 0.005661062 -0.001856587 -44.49838469130509 -18.157285126350057
3041200000.0 0.005339948 -0.002377482 -44.663872379334165 -23.999856478678318
3041600000.0 0.005171338 -0.002959932 -44.497235205481864 -29.78563791585944
3042000000.0 0.004789867 -0.003497703 -44.53744261147871 -36.13802767600825
3042400000.0 0.004407414 -0.004026024 -44.48133383937976 -42.41064574583987
3042800000.0 0.003772981 -0.004433724 -44.69886219450387 -49.60310202445708
3043200000.0 0.003371163 -0.004676995 -44.783517604072955 -54.216057642980815
3043600000.0 0.00288976 -0.005117564 -44.61675477048527 -60.547672726854394
3044000000.0 0.002383496 -0.005379179 -44.607153406246084 -66.10203013348217
3044400000.0 0.001791445 -0.005593662 -44.62201930849234 -72.24164151201639
3044800000.0 0.001310757 -0.005726739 -44.62009442972401 -77.10799811321887
3045200000.0 0.0006823921 -0.005849055 -44.59957186929897 -83.34555224314246
3045600000.0 -5.318985e-05 -0.005806353 -44.72156685902511 -90.52485074105766
3046000000.0 -0.0006590272 -0.005711413 -44.80768681160852 -96.58212293126644
3046400000.0 -0.001249732 -0.00571738 -44.65336074902585 -102.33005046840809
3046800000.0 -0.001689961 -0.005567337 -44.70425810009276 -106.885627877305
3047200000.0 -0.002400783 -0.005297401 -44.70746577513354 -114.38004146773265
3047600000.0 -0.002830863 -0.00498796 -44.82889513516055 -119.57661082722112
3048000000.0 -0.003347371 -0.004728002 -44.741923409267585 -125.29805450890012
3048400000.0 -0.003933119 -0.004253398 -44.74167441474555 -132.75957453840982
3048800000.0 -0.004383732 -0.003819928 -44.709682375542755 -138.93152251593943
3049200000.0 -0.004820554 -0.003317548 -44.6541721614292 -145.46390671621896
3049600000.0 -0.005151865 -0.002843304 -44.60596538780602 -151.10578181206037
3050000000.0 -0.005312907 -0.002430626 -44.668010655703725 -155.41616349555443
3050400000.0 -0.00554597 -0.001677702 -44.74016741263636 -163.1689979196544
3050800000.0 -0.005687582 -0.00106534 -44.75168654840522 -169.3908711445836
3051200000.0 -0.005794516 -0.0006006269 -44.693243972117216 -174.08217589103663
3051600000.0 -0.005856015 0.0001041387 -44.64658318464605 178.98120494258148
3052000000.0 -0.005728763 0.0007674956 -44.7615244787915 172.36938859172477
3052400000.0 -0.005773767 0.001231807 -44.57750689416955 167.9567600742938
3052800000.0 -0.005546269 0.001875112 -44.64995360464008 161.3203607980512
3053200000.0 -0.005229402 0.002439066 -44.77612003706268 154.99499824108287
3053600000.0 -0.005018591 0.00302529 -44.64216969886037 148.9177293535738
3054000000.0 -0.004634914 0.003508241 -44.712094600147225 142.87733480732936
3054400000.0 -0.004294132 0.003981579 -44.64800333872621 137.1628909591648
3054800000.0 -0.003790721 0.004371495 -44.75220592513742 130.93003766817213
3055200000.0 -0.003332402 0.004702767 -44.78588337493818 125.32155909223682
3055600000.0 -0.00284481 0.005104574 -44.66614128923468 119.13118861336409
3056000000.0 -0.002275491 0.005337606 -44.727840088088456 113.08918339719689
3056400000.0 -0.001747845 0.005507054 -44.76479764568271 107.60855034893405
3056800000.0 -0.0009922363 0.005662265 -44.80884021594787 99.93940062624716
3057200000.0 -0.0004574719 0.005825368 -44.66683148993346 94.49027857117636
3057600000.0 9.594494e-05 0.005801612 -44.72783878167472 89.05254969533252
3058000000.0 0.0007330377 0.005733903 -44.76058692024473 82.71467063110981
3058400000.0 0.00129651 0.005504405 -44.95129517882344 76.74610771417332
3058800000.0 0.001948439 0.005357332 -44.88151107402829 70.0138871940444
3059200000.0 0.00248458 0.005215851 -44.765365743595765 64.52912088223523
3059600000.0 0.002953928 0.004868845 -44.89035076444465 58.754813894095435
3060000000.0 0.00355024 0.004525236 -44.80408703301508 51.88430819642111
3060400000.0 0.003912166 0.004091888 -44.94191069884153 46.28629592644421
3060800000.0 0.004408662 0.003637269 -44.8590369116803 39.52358125066123
3061200000.0 0.004792827 0.003272024 -44.72662325431848 34.321035475978896
3061600000.0 0.005024333 0.002804407 -44.80058911294855 29.16872733801954
3062000000.0 0.005362469 0.002214411 -44.728898900180226 22.43799008339114
3062400000.0 0.005392862 0.001574177 -45.00849330378059 16.27253051968191
3062800000.0 0.005652107 0.0009776123 -44.82777182585661 9.813031129702253
3063200000.0 0.005728978 0.0003308961 -44.82399286046736 3.305634895203589
3063600000.0 0.005723286 -0.0002052901 -44.84150696434448 -2.05427716499044
3064000000.0 0.005747213 -0.0006957276 -44.74767331091792 -6.90234244611032
3064400000.0 0.005627273 -0.001367661 -44.74479699602672 -13.660394543813833
3064800000.0 0.005515357 -0.00191578 -44.673809503459154 -19.154862949303915
3065200000.0 0.005244974 -0.002546249 -44.68608765253853 -25.894929904456898
3065600000.0 0.004830813 -0.003064771 -44.850596271098425 -32.39191479895382
3066000000.0 0.004526728 -0.003459211 -44.88686176893015 -37.38614731080314
3066400000.0 0.004163555 -0.003934594 -44.83911443034926 -43.38049347971161
3066800000.0 0.003739882 -0.004374207 -44.79904371051494 -49.47004921904344
3067200000.0 0.003329442 -0.00483005 -44.632576898901846 -55.420792342338686
3067600000.0 0.00279273 -0.005199648 -44.57975705320345 -61.75976260637714
3068000000.0 0.002104762 -0.005314521 -44.85795614656431 -68.39446150040821
3068400000.0 0.001669939 -0.005464705 -44.86094242293731 -73.00756543767291
3068800000.0 0.001025008 -0.005637333 -44.83726937827504 -79.69477609503862
3069200000.0 0.0004864069 -0.005632245 -44.95409870216296 -85.06411987111454
3069600000.0 -0.0002077516 -0.005768642 -44.772899077047654 -92.06255608515768
3070000000.0 -0.0008080303 -0.005683603 -44.82062131896897 -98.09144118071899
3070400000.0 -0.001445418 -0.005549007 -44.83058788378195 -104.60009612698016
3070800000.0 -0.001936719 -0.005332118 -44.9238207287127 -109.96191145442947
3071200000.0 -0.00257035 -0.005168531 -44.77289639610733 -116.44151003897638
3071600000.0 -0.003074212 -0.005011898 -44.613018643814335 -121.524236459144
3072000000.0 -0.003549211 -0.004492301 -44.84421961269906 -128.31103810121482
3072400000.0 -0.003988873 -0.004145848 -44.80182982477244 -133.89450555587112
3072800000.0 -0.004491911 -0.003654729 -44.745106447354324 -140.86735218886756
3073200000.0 -0.004806876 -0.003164093 -44.79941912210538 -146.64536421052847
3073600000.0 -0.005174905 -0.002728958 -44.65633023726006 -152.19532092746223
3074000000.0 -0.005493564 -0.002129439 -44.594983950197104 -158.8124577672689
3074400000.0 -0.005636889 -0.001517017 -44.6755319795336 -164.93726444808073
3074800000.0 -0.005611368 -0.001004531 -44.88162965861798 -169.85058253932874
3075200000.0 -0.005656029 -0.0004766211 -44.9190369119618 -175.18319089528353
3075600000.0 -0.005707246 0.0002179108 -44.86514152464328 177.81342747351036
3076000000.0 -0.005707983 0.0007780272 -44.79039905552994 172.2381266038809
3076400000.0 -0.005624946 0.00142072 -44.72905722093536 165.82498992414227
3076800000.0 -0.005452163 0.002083007 -44.67691612581242 159.09056865141108
3077200000.0 -0.005097436 0.002581443 -44.86147385854585 153.14143884244416
3077600000.0 -0.004891184 0.003195461 -44.66804521348794 146.8430001094651
3078000000.0 -0.004502009 0.003631296 -44.75546810862433 141.11054096806447
3078400000.0 -0.004119859 0.004108306 -44.704231553807034 135.08044779191044
3078800000.0 -0.003626799 0.00452668 -44.73085885224024 128.70188464148274
3079200000.0 -0.003011103 0.004823133 -44.90402983886426 121.97671319895558
3079600000.0 -0.002656431 0.005048173 -44.87573425325584 117.75407733497639
3080000000.0 -0.002018272 0.005352462 -44.851565585846764 110.66013396560145
3080400000.0 -0.001501829 0.005580252 -44.76322418162424 105.06325566335097
3080800000.0 -0.0009857664 0.005572527 -44.945136746937294 100.03170261823864
3081200000.0 -0.0001951806 0.005816646 -44.70166004133348 91.92186875295036
3081600000.0 0.0003633064 0.005766119 -44.76512108174936 86.39472526531897
3082000000.0 0.00091543 0.005767632 -44.671998891202456 80.98132817616931
3082400000.0 0.001460137 0.00558324 -44.77496182817266 75.34416137170712
3082800000.0 0.002119401 0.00540371 -44.72473950931214 68.58428247322311
3083200000.0 0.002544023 0.005167657 -44.79166396799549 63.789106510529486
3083600000.0 0.00319237 0.004853822 -44.71715745529892 56.66698761164263
3084000000.0 0.003680311 0.004440653 -44.78024377479345 50.34884250434844
3084400000.0 0.004120891 0.003987728 -44.83019094910129 44.05915025700171
3084800000.0 0.004537251 0.003628173 -44.71722543184895 38.647272137354975
3085200000.0 0.004847029 0.003149367 -44.760948934893534 33.013879195225364
3085600000.0 0.005198721 0.002653954 -44.6762567559016 27.044372188801105
3086000000.0 0.005487323 0.002077544 -44.63102046909421 20.73706311576816
3086400000.0 0.005612159 0.001491966 -44.720829258675025 14.887470841469026
3086800000.0 0.005877763 0.0009449462 -44.504937727518524 9.13308152699934
3087200000.0 0.005829968 0.0002197088 -44.68051292078759 2.1582335466684315
3087600000.0 0.005801517 -0.0003043259 -44.71723472249471 -3.0027702812122246
3088000000.0 0.005742317 -0.0009719993 -44.69557124400311 -9.607363141006015
3088400000.0 0.005513147 -0.001535324 -44.8476204700568 -15.561676603262253
3088800000.0 0.0054372 -0.002153171 -44.65982920312068 -21.603928277749134
3089200000.0 0.005103465 -0.002686942 -44.78012311404466 -27.766520861597712
3089600000.0 0.004820105 -0.003210204 -44.74452196265973 -33.66373104074237
3090000000.0 0.004352564 -0.003707519 -44.85578297232144 -40.42439511711489
3090400000.0 0.00397868 -0.004270955 -44.6761574211888 -47.02907433308837
3090800000.0 0.003590336 -0.004590793 -44.689569633414536 -51.97199139938066
3091200000.0 0.003006154 -0.004945557 -44.750135879509344 -58.706697759525625
3091600000.0 0.002498104 -0.005302419 -44.63995246265674 -64.77368672250603
3092000000.0 0.002001414 -0.005575548 -44.5478700943458 -70.25375300388836
3092400000.0 0.00140024 -0.005525409 -44.88239372282693 -75.77956959624187
3092800000.0 0.0007635246 -0.005785609 -44.67803285496542 -82.48214072406464
3093200000.0 0.0002444677 -0.00580488 -44.71643923517622 -87.58846086327969
3093600000.0 -0.0004158361 -0.005737411 -44.80292672289291 -94.14543516146306
3094000000.0 -0.001104794 -0.005748647 -44.651174250360654 -100.87865439104175
3094400000.0 -0.00175752 -0.005468862 -44.8152122458739 -107.81576953227399
3094800000.0 -0.002284092 -0.005348697 -44.707540306836044 -113.12427951006036
3095200000.0 -0.002923493 -0.005100573 -44.61392888006871 -119.82002049257103
3095600000.0 -0.003239299 -0.00485247 -44.68016532933717 -123.72535850520302
3096000000.0 -0.003791898 -0.004533944 -44.56737528940363 -129.9069338986202
3096400000.0 -0.004351403 -0.004005317 -44.56214061476955 -137.37149769622349
3096800000.0 -0.004666748 -0.003555457 -44.631915139998036 -142.6972987056485
3097200000.0 -0.005029349 -0.002995938 -44.65085947989049 -149.2181230090419
3097600000.0 -0.005306187 -0.00249243 -44.63847916547434 -154.83954767469706
3098000000.0 -0.005565336 -0.001878926 -44.62139016960916 -161.3446840470449
3098400000.0 -0.005582129 -0.001210535 -44.86442036357754 -167.7643511264044
3098800000.0 -0.005788415 -0.0006209731 -44.69911057127562 -173.87680690397067
3099200000.0 -0.005903369 -2.014726e-05 -44.57795080839305 -179.80445937141747
3099600000.0 -0.005792149 0.0004795435 -44.713538285605665 175.26716287991468
3100000000.0 -0.005749397 0.001126686 -44.64389615963767 168.9124836558093
3100400000.0 -0.005509009 0.001858976 -44.7101942033623 161.35339808707354
3100800000.0 -0.005375099 0.002211183 -44.713272474553506 157.6389440649571
3101200000.0 -0.005068061 0.002797132 -44.74836073571857 151.1050949676808
3101600000.0 -0.004807378 0.003401067 -44.599442047645645 144.72180796698188
3102000000.0 -0.004338703 0.003899042 -44.68177969545077 138.05506443342645
3102400000.0 -0.003886902 0.004206049 -44.841413125297684 132.74170064327612
3102800000.0 -0.003527631 0.004720202 -44.59364156650098 126.77250714944981
3103200000.0 -0.002942296 0.005010003 -44.71633122499782 120.42504643935513
3103600000.0 -0.002382305 0.00536486 -44.62721277562934 113.94396121608492
3104000000.0 -0.001783886 0.005532528 -44.71197473379186 107.87118797012911
