## frequency[GHz]  I  Q  LogM[dB] Phase[deg]
3000000000.0 -0.003609897 -0.005677852 -43.44195648368661 -122.4476164539891
3000400000.0 -0.00418906 -0.005281649 -43.42523068066189 -128.41916054194206
3000800000.0 -0.004856624 -0.004866898 -43.25382308500629 -134.9394605555834
3001200000.0 -0.005184487 -0.004303845 -43.429251377318906 -140.30261065179928
3001600000.0 -0.005596514 -0.003705163 -43.463128995377446 -146.49351373341077
3002000000.0 -0.005973663 -0.003041218 -43.474282384359206 -153.01915630690053
3002400000.0 -0.006207183 -0.002428274 -43.52366351816059 -158.63437049932213
3002800000.0 -0.006501876 -0.001725891 -43.44351748553375 -165.13394763592316
3003200000.0 -0.006507523 -0.001001742 -43.62997447488554 -171.24880954492738
3003600000.0 -0.006662896 -0.0004056589 -43.5106707639826 -176.5159461710696
3004000000.0 -0.006663578 0.0003833406 -43.51150129638594 176.7075320204576
3004400000.0 -0.006558309 0.0009766064 -43.56891174070323 171.53024871542138
3004800000.0 -0.00638897 0.001717124 -43.588487309912935 164.95646062572635
3005200000.0 -0.006177517 0.002489713 -43.53004672667461 158.04917969693852
3005600000.0 -0.0059767 0.002926691 -43.53729002887847 153.9097738213192
3006000000.0 -0.005507661 0.003711649 -43.554563654311295 146.0237105504635
3006400000.0 -0.005130962 0.004158783 -43.60291966631096 140.97430122420448
3006800000.0 -0.004577267 0.00468939 -43.671202429741285 134.30677684384
3007200000.0 -0.004010332 0.005119818 -43.73707899455377 128.07144956637887
3007600000.0 -0.003428527 0.005517653 -43.74694835180392 121.85574982146535
3008000000.0 -0.002813532 0.005811909 -43.79923849100934 115.83151907276023
3008400000.0 -0.002195638 0.006077546 -43.79266637523237 109.86329209476335
3008800000.0 -0.001641712 0.006428252 -43.56373225411876 104.3265369861393
3009200000.0 -0.000873362 0.006518746 -43.63945505049773 97.63087522702585
3009600000.0 -0.0001983457 0.006498125 -43.740194397592916 91.74832649805519
3010000000.0 0.0004279604 0.006452579 -43.78627126495546 86.20547606475783
3010400000.0 0.001137397 0.00632764 -43.83706225116629 79.80986875462196
3010800000.0 0.00180216 0.006080237 -43.95589652412977 73.49036923480894
3011200000.0 0.002502841 0.005941757 -43.81233668801234 67.15775766976518
3011600000.0 0.003064799 0.005650857 -43.83785269796647 61.526365132767936
3012000000.0 0.003668204 0.005438073 -43.66245221221089 55.99871504955781
3012400000.0 0.004094161 0.004914482 -43.88125006125949 50.2029663264941
3012800000.0 0.004599915 0.004414018 -43.91016669348586 43.818539713524984
3013200000.0 0.005098614 0.003914961 -43.838104231593476 37.518787365131644
3013600000.0 0.005426188 0.003367057 -43.895465053738896 31.820419929784382
3014000000.0 0.005777631 0.002709823 -43.90147857859751 25.127504501274814
3014400000.0 0.005959896 0.002218857 -43.93149262379113 20.420195111172294
3014800000.0 0.006226561 0.001396132 -43.90200267666401 12.637948585554824
3015200000.0 0.00626576 0.0008104716 -43.988463209673185 7.370245691137125
3015600000.0 0.006433127 0.0001077202 -43.8303399845773 0.9593058079439096
3016000000.0 0.006221382 -0.0004599895 -44.098585886031714 -4.228576293228015
3016400000.0 0.00615365 -0.001167396 -44.06379237074992 -10.741813079449637
3016800000.0 0.00594558 -0.001815924 -44.12878577176889 -16.983939455726468
3017200000.0 0.005826873 -0.002484732 -43.965704288842 -23.09467573337249
3017600000.0 0.005540772 -0.003041516 -43.98472628887901 -28.76386329286148
3018000000.0 0.005113917 -0.003643487 -44.04204674320982 -35.46854295892989
3018400000.0 0.004735989 -0.004182654 -43.98763926600032 -41.44977660396873
3018800000.0 0.004235449 -0.00456086 -44.118350903774285 -47.118636173198745
3019200000.0 0.00367277 -0.005030933 -44.11173576374712 -53.86915237278952
3019600000.0 0.003122281 -0.005234973 -44.2999932151367 -59.18699438742535
3020000000.0 0.002575669 -0.005719104 -44.051411223699574 -65.75499303123223
3020400000.0 0.002066972 -0.005850372 -44.1454800399128 -70.54137575079737
3020800000.0 0.001305344 -0.006087348 -44.116192722373896 -77.89703346944859
3021200000.0 0.0006668655 -0.006136209 -44.1910043885519 -83.79760171868554
3021600000.0 0.0001557346 -0.006238278 -44.09599974538699 -88.5699447268941
3022000000.0 -0.0006038265 -0.006192344 -44.12179850505627 -95.56940579576664
3022400000.0 -0.001242655 -0.006124908 -44.082823327565436 -101.46881194775494
3022800000.0 -0.00180391 -0.005827088 -44.29351466456005 -107.20112113593046
3023200000.0 -0.002452216 -0.005617236 -44.25196911812556 -113.58377504507777
3023600000.0 -0.003027306 -0.005486177 -44.06019620509377 -118.89018235404262
3024000000.0 -0.003544399 -0.004972682 -44.28403767002326 -125.48028797873124
3024400000.0 -0.004010765 -0.004600566 -44.28856894702693 -131.08185836545587
3024800000.0 -0.004496685 -0.004043576 -44.36866930330298 -138.0370166657125
3025200000.0 -0.004903475 -0.003678443 -44.25100895392987 -143.12384546027886
3025600000.0 -0.005227936 -0.003100259 -44.324687724533845 -149.33130546903402
3026000000.0 -0.005636404 -0.002421876 -44.24413463938499 -156.7475480708094
3026400000.0 -0.005847238 -0.001906055 -44.222412957370466 -161.94531225316422
3026800000.0 -0.005880423 -0.001303711 -44.4034424911779 -167.49951143956093
3027200000.0 -0.00618813 -0.0006774011 -44.11707838120694 -173.75283038888497
3027600000.0 -0.006032466 -0.0001248204 -44.388243371881586 -178.81463704076353
3028000000.0 -0.005993974 0.0006891398 -44.38867143351564 173.44138108538854
3028400000.0 -0.005997377 0.001352284 -44.22540338031521 167.2934839360016
3028800000.0 -0.005765117 0.001912654 -44.330346118027606 161.6460520856127
3029200000.0 -0.005576521 0.002489771 -44.2833138483884 155.94048572003075
3029600000.0 -0.005180068 0.003060413 -44.41300640744213 149.42516980646354
3030000000.0 -0.004860018 0.003524579 -44.43185911184335 144.04965189749717
3030400000.0 -0.004384312 0.003980315 -44.55124927978366 137.76513817334768
3030800000.0 -0.003982025 0.004389826 -44.54357759663417 132.21127115245304
3031200000.0 -0.003538903 0.004839018 -44.44422777355905 126.17900088222822
3031600000.0 -0.002996237 0.005181086 -44.458612237545516 120.04091891886331
3032000000.0 -0.002449634 0.005394097 -44.54730138202898 114.42433598619019
3032400000.0 -0.001838411 0.005642496 -44.53241278000122 108.04639717346613
3032800000.0 -0.001264634 0.005831091 -44.48538761701358 102.23667503298012
3033200000.0 -0.0005676844 0.00595975 -44.45621267312609 95.44118150853052
3033600000.0 0.0001183648 0.005984095 -44.45833158895654 88.86684298246617
3034000000.0 0.0006457765 0.00597882 -44.41731755118235 83.83534187750483
3034400000.0 0.001270974 0.005776269 -44.56172019706464 77.59073824622834
3034800000.0 0.001920167 0.005645407 -44.49066808711517 71.21533846661976
3035200000.0 0.002525842 0.00550424 -44.35611691536067 65.35007183599373
3035600000.0 0.002941026 0.005196349 -44.47920038463059 60.49103694667027
3036000000.0 0.003544787 0.004829043 -44.450849778547344 53.71925345698957
3036400000.0 0.003948839 0.004400103 -44.56500187628844 48.09385166986599
3036800000.0 0.00452132 0.004001009 -44.38297611371291 41.506275841750956
3037200000.0 0.004785179 0.003464607 -44.571566575000354 35.905617810879356
3037600000.0 0.005120802 0.00286416 -44.63113112267992 29.219098483575767
3038000000.0 0.005416126 0.002285948 -44.61426528748114 22.88282319512452
3038400000.0 0.005695214 0.001696303 -44.52066537036876 16.586010478525512
3038800000.0 0.005824765 0.001172408 -44.52195426221979 11.380426356995791
3039200000.0 0.005962618 0.0005077209 -44.45988476063178 4.867033472419663
3039600000.0 0.005897773 -7.16459e-06 -44.5862325323585 -0.06960263933734512
3040000000.0 0.005778634 -0.0007429833 -44.692288556959106 -7.326563418746325
3040400000.0 0.005858479 -0.001225933 -44.45817584262046 -11.819049628852248
3040800000.0 0.005585448 -0.001815237 -44.62277659811324 -18.00384986283863
3041200000.0 0.005286591 -0.002427872 -44.70536191235262 -24.666998612206115
3041600000.0 0.005022813 -0.003008452 -44.64966359137434 -30.91982063996005
3042000000.0 0.004715614 -0.003439561 -44.67658520906753 -36.10694903928449
3042400000.0 0.004256225 -0.004008344 -44.661990632253776 -43.282030365395855
3042800000.0 0.003851767 -0.004373255 -44.690135413868035 -48.62784693818494
3043200000.0 0.003456028 -0.004697903 -44.683369028031656 -53.65981741573888
3043600000.0 0.002863365 -0.005076366 -44.68925536942561 -60.57447934585348
3044000000.0 0.002333036 -0.005520731 -44.446452009578266 -67.09130008495778
3044400000.0 0.001729674 -0.005623406 -44.607423490006326 -72.90290015711685
3044800000.0 0.001246609 -0.005704662 -44.672812507513235 -77.67323783785812
3045200000.0 0.0005684234 -0.005787851 -44.70796549843605 -84.39098294563661
3045600000.0 -3.985492e-05 -0.005787392 -44.750136052686855 -90.39456159389289
3046000000.0 -0.0006527985 -0.00581832 -44.64971938267949 -96.40164689235131
3046400000.0 -0.001372109 -0.005786979 -44.513427280784285 -103.33867449163208
3046800000.0 -0.00186693 -0.005463495 -44.77096866643337 -108.86580257586463
3047200000.0 -0.002516817 -0.005314299 -44.61223470971352 -115.34192683327643
3047600000.0 -0.003079511 -0.005004925 -44.617699389405416 -121.60382497326482
3048000000.0 -0.003538284 -0.004619095 -44.703708668604484 -127.45256218613346
3048400000.0 -0.003946307 -0.004298058 -44.67925722100091 -132.55692136123855
3048800000.0 -0.004341943 -0.003863766 -44.713254836091224 -138.33506520975686
3049200000.0 -0.004872157 -0.003331757 -44.57940321049959 -145.63426891466523
3049600000.0 -0.004932452 -0.002876251 -44.86757055095052 -149.75234032494785
3050000000.0 -0.005341427 -0.002269007 -44.72637779658445 -156.984498115857
3050400000.0 -0.005460962 -0.001828455 -44.793153673239374 -161.48827549808712
3050800000.0 -0.005668536 -0.001047522 -44.7847485089407 -169.53009142234563
3051200000.0 -0.005892428 -0.0005960974 -44.549894452474 -174.2234228258091
3051600000.0 -0.005785957 1.392517e-05 -44.75247080966153 179.86210545126067
3052000000.0 -0.005827271 0.0007011158 -44.62827784409055 173.13936075633634
3052400000.0 -0.005617627 0.001235314 -44.8038548240949 167.59806783849498
3052800000.0 -0.005480375 0.00198523 -44.68832247689967 160.08741192446217
3053200000.0 -0.005279083 0.002460231 -44.695255418894284 155.01289076322493
3053600000.0 -0.004847374 0.002971706 -44.90420205443221 148.48941977289658
3054000000.0 -0.004709078 0.003581023 -44.55942610431017 142.74879058696013
3054400000.0 -0.004127943 0.003857215 -44.95964044312239 136.9418066000155
3054800000.0 -0.003787954 0.004441106 -44.67602143380418 130.46186770252356
3055200000.0 -0.003209088 0.004844869 -44.714560609442096 123.51923170327372
3055600000.0 -0.002686848 0.005106145 -44.77661823771997 117.75329688056091
3056000000.0 -0.002166853 0.005343758 -44.78195269658062 112.07217792166361
3056400000.0 -0.001586427 0.005504667 -44.83886441493242 106.07680818842846
3056800000.0 -0.0008767732 0.005781624 -44.66025868622201 98.62310324944113
3057200000.0 -0.0004838383 0.005738515 -44.793245304807186 94.81944906626
3057600000.0 0.0002129 0.005837891 -44.66910824502561 87.91142588614805
3058000000.0 0.0007788108 0.005768918 -44.69967375207807 82.31148521985624
3058400000.0 0.001360337 0.005656409 -44.70499328360691 76.47746333303951
3058800000.0 0.001951841 0.005405025 -44.81170606607998 70.14453790579118
3059200000.0 0.002505405 0.005258137 -44.69479389336887 64.52306423259421
3059600000.0 0.003010838 0.004964053 -44.722803157827585 58.76200832883632
3060000000.0 0.003468879 0.004603097 -44.78579147822046 52.998439110194155
3060400000.0 0.004029042 0.004184301 -44.71834915618057 46.082948329720445
3060800000.0 0.004342417 0.003703689 -44.87130273074478 40.4611790690991
3061200000.0 0.004767443 0.00319378 -44.82424841550424 33.81871073276415
3061600000.0 0.005033713 0.002777746 -44.807741455883715 28.89116310367844
3062000000.0 0.005327572 0.002177203 -44.79867236906652 22.22821562042521
3062400000.0 0.005554527 0.001671634 -44.73051968417715 16.749159337712047
3062800000.0 0.005672511 0.001004954 -44.79027900994771 10.04639973760456
3063200000.0 0.005719795 0.0004441953 -44.82627723141654 4.440637570172244
3063600000.0 0.005717254 -0.0002044836 -44.85069826982435 -2.0483706561308543
3064000000.0 0.005843835 -0.0006667931 -44.609864071398235 -6.509409633933948
3064400000.0 0.005562878 -0.00144675 -44.80977086281074 -14.578091721294946
3064800000.0 0.005324839 -0.002073903 -44.86050524304864 -21.279775746363363
3065200000.0 0.005108676 -0.002503574 -44.89904888483969 -26.107772957580707
3065600000.0 0.004871953 -0.003099428 -44.77003403691871 -32.46361018216934
3066000000.0 0.004518526 -0.003555894 -44.80677980332192 -38.20128940710202
3066400000.0 0.004121897 -0.003998993 -44.81723277416569 -44.132934577564114
3066800000.0 0.003774413 -0.004482078 -44.64260207389435 -49.89885665749298
3067200000.0 0.003152719 -0.004712177 -44.928967140661115 -56.2151878107458
3067600000.0 0.00271576 -0.005006116 -44.889653471202195 -61.52068111774764
3068000000.0 0.002145424 -0.005405996 -44.70728339802939 -68.35384807889072
3068400000.0 0.001549436 -0.005631787 -44.67019277173793 -74.61717942272901
3068800000.0 0.001082136 -0.005705552 -44.72056515829166 -79.26063226633983
3069200000.0 0.0003919759 -0.005704718 -44.854860815829326 -86.06933753855964
3069600000.0 -0.0002018063 -0.005721092 -44.84502096821106 -92.02021872643351
3070000000.0 -0.0008791797 -0.005619884 -44.900444602817615 -98.89133582457812
3070400000.0 -0.001470182 -0.0056297 -44.70377730868442 -104.63578203910512
3070800000.0 -0.00193676 -0.005449709 -44.755991067556444 -109.56459156674788
3071200000.0 -0.002597746 -0.00508041 -44.87330942430255 -117.08184390167611
3071600000.0 -0.003103787 -0.00482944 -44.82052532851149 -122.72806506750238
3072000000.0 -0.003592231 -0.004455656 -44.846959595315205 -128.8763924122175
3072400000.0 -0.004007576 -0.004125299 -44.804508152030316 -134.17070408334786
3072800000.0 -0.004476584 -0.003736942 -44.68463098035991 -140.1457030784316
3073200000.0 -0.004834475 -0.003116712 -44.80355180446837 -147.1907440973803
3073600000.0 -0.005119916 -0.002668583 -44.77101168087951 -152.47074577890982
3074000000.0 -0.005361332 -0.002065605 -44.81346518322424 -158.92940756355085
3074400000.0 -0.005526061 -0.001462667 -44.85761211930041 -165.17462319740125
3074800000.0 -0.005776722 -0.0008757451 -44.667689668970525 -171.37965725369708
3075200000.0 -0.005761869 -0.0003429759 -44.773371504579316 -176.59348185786266
3075600000.0 -0.005643921 0.0002229397 -44.961610385495675 177.73794379211583
3076000000.0 -0.005712056 0.0009075828 -44.75587125929671 170.97180116137594
3076400000.0 -0.005508007 0.001446976 -44.89027866772199 165.28075664108513
3076800000.0 -0.005463408 0.002113829 -44.644894195526604 158.8482134901957
3077200000.0 -0.005127728 0.002696412 -44.74123284177462 152.26239506678928
3077600000.0 -0.004774251 0.003103705 -44.891004963652314 146.97240491029592
3078000000.0 -0.004513769 0.003597941 -44.77304261214183 141.44152878007623
3078400000.0 -0.004090329 0.004109962 -44.73368977709549 134.86282366200675
3078800000.0 -0.003587465 0.004460809 -44.845404952305515 128.80688373644188
3079200000.0 -0.003106765 0.004772296 -44.890959354799605 123.06412994430985
3079600000.0 -0.002550628 0.005300643 -44.60892279094925 115.69649634186415
3080000000.0 -0.002021691 0.005429885 -44.740372017475764 110.4216408437906
3080400000.0 -0.001463208 0.005568466 -44.795323033210295 104.72260412221405
3080800000.0 -0.0008262512 0.005786016 -44.66473592054914 98.12697251929961
3081200000.0 -0.0002462069 0.005761995 -44.780620312558426 92.44672901206171
3081600000.0 0.000421526 0.005668093 -44.90730759761825 85.74684408488085
3082000000.0 0.0009818821 0.005780883 -44.636600130226256 80.36031631080536
3082400000.0 0.001558242 0.00553783 -44.802287012376915 74.28438905522219
3082800000.0 0.002148609 0.005356261 -44.77476837253466 68.14231890396502
3083200000.0 0.002673257 0.005105163 -44.78744303240581 62.36173988670959
3083600000.0 0.003245322 0.004849753 -44.67854581623038 56.21064484755144
3084000000.0 0.00369671 0.004435171 -44.77081215178682 50.18883205041094
3084400000.0 0.004095135 0.004003909 -44.84107382084009 44.35465917346875
3084800000.0 0.004523408 0.003553498 -44.80322028125172 38.15246239083716
3085200000.0 0.004885531 0.003063106 -44.78194877394066 32.08668556449073
3085600000.0 0.005213677 0.002539582 -44.73248537630348 25.97071256418647
3086000000.0 0.005386036 0.001997187 -44.81510543094137 20.34519985579434
3086400000.0 0.005611697 0.001475011 -44.72798152320327 14.72683810405711
3086800000.0 0.005788674 0.0007589275 -44.674402995202485 7.4691959963953245
3087200000.0 0.005786042 0.0002532641 -44.74405546117363 2.506325955714451
3087600000.0 0.005802801 -0.0003630709 -44.710277967848945 -3.5802275765436855
3088000000.0 0.005679015 -0.0009908966 -44.784293097358 -9.89755048930117
3088400000.0 0.005644896 -0.001585421 -44.637142057306875 -15.687886109336986
3088800000.0 0.00545383 -0.002143062 -44.64237949959853 -21.45215862286863
3089200000.0 0.005046639 -0.002744915 -44.814449547320365 -28.54219032146726
3089600000.0 0.004858695 -0.003288709 -44.63157288726251 -34.092925715501764
3090000000.0 0.00451346 -0.003771471 -44.609827147443696 -39.882308634119404
3090400000.0 0.003924563 -0.004181777 -44.82943341243873 -46.81738414974789
3090800000.0 0.003595352 -0.004659371 -44.60468581133029 -52.34482449420262
3091200000.0 0.00300661 -0.004998889 -44.68155982972955 -58.974957682737426
3091600000.0 0.002540917 -0.005292603 -44.62585103693874 -64.35488050641597
3092000000.0 0.001829148 -0.005475442 -44.77213584666497 -71.52738226491289
3092400000.0 0.001387864 -0.005779067 -44.519328056991455 -76.49594329260353
3092800000.0 0.0006974916 -0.005784675 -44.69173533286511 -83.12470832881621
3093200000.0 0.0001084936 -0.005868607 -44.62781540460093 -88.94088710501055
3093600000.0 -0.0004638607 -0.005891178 -44.569115253070834 -94.50207752899362
3094000000.0 -0.001120695 -0.005760143 -44.62997331469041 -101.00993547671713
3094400000.0 -0.001724311 -0.005513163 -44.7666702892601 -107.36772904482646
3094800000.0 -0.00231477 -0.005379091 -44.647973049065904 -113.28353214288425
3095200000.0 -0.002785789 -0.005075975 -44.746164126986955 -118.75879483950469
3095600000.0 -0.003397664 -0.004770856 -44.64640200990217 -125.45735690067119
3096000000.0 -0.003904724 -0.004373454 -44.63770313899719 -131.7592380095281
3096400000.0 -0.004220328 -0.003882141 -44.830393029048935 -137.3900674393989
3096800000.0 -0.004619184 -0.003463566 -44.77123639929546 -143.13662834196023
3097200000.0 -0.004988146 -0.002961607 -44.72979872580835 -149.30116651208814
3097600000.0 -0.005293658 -0.00247814 -44.664313773080565 -154.91411961040293
3098000000.0 -0.005549435 -0.001898014 -44.63458147246352 -161.11832086402
3098400000.0 -0.005656473 -0.001271571 -44.73498156187779 -167.3305637900428
3098800000.0 -0.005731378 -0.0006762088 -44.774781466164285 -173.2711429081867
3099200000.0 -0.005830097 -0.000130713 -44.6843018546729 -178.71562193315498
3099600000.0 -0.005797815 0.000596988 -44.688909853981116 174.1211004737799
3100000000.0 -0.005829144 0.001113915 -44.53214022117996 169.18154217289174
3100400000.0 -0.005568476 0.001798776 -44.65421598422911 162.09806893408103
3100800000.0 -0.005428859 0.00232809 -44.572677499039614 156.78860570654504
3101200000.0 -0.005156036 0.003051531 -44.44947305251115 149.38139878993508
3101600000.0 -0.00470836 0.003442557 -44.68267572570083 143.82728150141702
3102000000.0 -0.004290284 0.003888048 -44.746512406983776 137.81571708513854
3102400000.0 -0.003994965 0.004343721 -44.580757353895024 132.60506536899769
3102800000.0 -0.003415188 0.004730631 -44.67980100915856 125.82667621105578
3103200000.0 -0.002848499 0.005084929 -44.68898706621735 119.25687817389984
3103600000.0 -0.00243041 0.005334054 -44.63959170548215 114.4959222273933
3104000000.0 -0.001907161 0.005562238 -44.61228332227157 108.92563961971551
