## frequency[GHz]  I  Q  LogM[dB] Phase[deg]
3000000000.0 -0.003524127 -0.005779298 -43.389472232551086 -121.3741961641046
3000400000.0 -0.004141782 -0.00540104 -43.34179029414437 -127.48275775304958
3000800000.0 -0.004722045 -0.004790118 -43.44449186696585 -134.58997453920756
3001200000.0 -0.005138054 -0.004250085 -43.52002982354192 -140.40319734424727
3001600000.0 -0.005654313 -0.003637256 -43.44853045495334 -147.24799550506046
3002000000.0 -0.005872149 -0.003051397 -43.58593740618886 -152.54185696202902
3002400000.0 -0.006202667 -0.002432201 -43.52727773277259 -158.58877131321094
3002800000.0 -0.006374017 -0.001724737 -43.60485517215942 -164.85899113634318
3003200000.0 -0.006541482 -0.001133281 -43.55804599009449 -170.17133302273967
3003600000.0 -0.006637601 -0.0003806594 -43.54551707031314 -176.717742808149
3004000000.0 -0.006672318 0.000274771 -43.50710651155631 177.64184976199584
3004400000.0 -0.006641596 0.0009937726 -43.45839044780732 171.49004785786624
3004800000.0 -0.006390936 0.001790581 -43.560516887930206 164.34845194458345
3005200000.0 -0.006225885 0.002427777 -43.501226589265016 158.69675776915506
3005600000.0 -0.005864188 0.003072255 -43.582537803519905 152.34990404165032
3006000000.0 -0.005550155 0.003590836 -43.595352225383806 147.0979644838308
3006400000.0 -0.005084561 0.004150708 -43.65712838618936 140.77401511543576
3006800000.0 -0.00456694 0.00459816 -43.76750540545767 134.8048283905546
3007200000.0 -0.003977512 0.005105308 -43.7794384963953 127.92192262627061
3007600000.0 -0.003457744 0.005446217 -43.80726378747252 122.41102031752412
3008000000.0 -0.002922508 0.005800721 -43.74796474594761 116.7397907406955
3008400000.0 -0.002323664 0.006095588 -43.71043205863351 110.86705870798185
3008800000.0 -0.001635354 0.006327856 -43.6940795544783 104.49031743926241
3009200000.0 -0.0009203007 0.006444582 -43.72843243709579 98.12701914638711
3009600000.0 -0.000282842 0.006489146 -43.7480060992528 92.49576784644442
3010000000.0 0.000369612 0.006435203 -43.81445166173745 86.71277400877074
3010400000.0 0.0009879821 0.006433749 -43.72949379150179 81.26971899266164
3010800000.0 0.001863742 0.006236285 -43.729949948842076 73.36098647978811
3011200000.0 0.002358382 0.00590408 -43.93402333740426 68.225784832289
3011600000.0 0.00293383 0.005719061 -43.83892062203428 62.84255941346915
3012000000.0 0.003548463 0.005419712 -43.771141404247615 56.785917287841805
3012400000.0 0.004154822 0.004957866 -43.783773814951346 50.036107880680376
3012800000.0 0.004609388 0.004360523 -43.95119556853299 43.41076937737079
3013200000.0 0.005037786 0.004000627 -43.831643425197655 38.4539340495119
3013600000.0 0.005526741 0.003281986 -43.83878596874745 30.703428603337773
3014000000.0 0.005738794 0.002675536 -43.969395760415566 24.995837235406587
3014400000.0 0.006015923 0.002250254 -43.845236969229305 20.508293306447662
3014800000.0 0.006042654 0.001524591 -44.10742638493764 14.160466747203044
3015200000.0 0.006351355 0.0009462473 -43.84733008035468 8.473799349929289
3015600000.0 0.006396274 0.0002097659 -43.87679042570838 1.878342731696373
3016000000.0 0.006369248 -0.0005241738 -43.88892166852878 -4.704702557633045
3016400000.0 0.006150755 -0.001112515 -44.08162405767469 -10.252501399297351
3016800000.0 0.006095886 -0.001873348 -43.907337419919585 -17.08289935160974
3017200000.0 0.005879879 -0.002416568 -43.934812953552324 -22.342143253514227
3017600000.0 0.005542224 -0.003035682 -43.98683156634168 -28.71115811613788
3018000000.0 0.005191136 -0.003468567 -44.09170978052951 -33.74970102274289
3018400000.0 0.004758855 -0.004161748 -43.983001084997795 -41.17057793216414
3018800000.0 0.004276236 -0.004557442 -44.08306990407142 -46.82330370896131
3019200000.0 0.003732033 -0.005007702 -44.088780516928985 -53.30436209063565
3019600000.0 0.003193747 -0.005313891 -44.152453475294905 -58.993352506835436
3020000000.0 0.002662407 -0.005585581 -44.16947230880172 -64.51486386506322
3020400000.0 0.002028977 -0.005888844 -44.112216542368216 -70.98881999562397
3020800000.0 0.00131034 -0.006011039 -44.21938926416482 -77.70253372867985
3021200000.0 0.0006931048 -0.00607928 -44.26686900877607 -83.49573569222392
3021600000.0 0.0001406742 -0.006149127 -44.221458407993374 -88.68946725566809
3022000000.0 -0.0005101204 -0.00617625 -44.15597678341374 -94.72156328503657
3022400000.0 -0.001200964 -0.006153626 -44.0550328142325 -101.043240706266
3022800000.0 -0.001940906 -0.00589438 -44.14417102192423 -108.22572021122653
3023200000.0 -0.002470921 -0.005647444 -44.20226982909891 -113.6307763887579
3023600000.0 -0.003016004 -0.005382038 -44.195013988486764 -119.26554040003919
3024000000.0 -0.003492254 -0.005085696 -44.19529597946404 -124.47667083144037
3024400000.0 -0.004056911 -0.004586366 -44.26046565421197 -131.4946536900647
3024800000.0 -0.004447267 -0.004137334 -44.330240526269016 -137.06767249297067
3025200000.0 -0.004947987 -0.003638634 -44.23402609753641 -143.67010564252496
3025600000.0 -0.005300759 -0.003059471 -44.26450675292719 -150.00748823124763
3026000000.0 -0.005506009 -0.002550554 -44.33898985758474 -155.14496590594834
3026400000.0 -0.005824183 -0.001947334 -44.235064162310486 -161.51247860449237
3026800000.0 -0.006073856 -0.001326651 -44.12831067535721 -167.67896377992344
3027200000.0 -0.006055187 -0.0005876718 -44.316733139439336 -174.4566552770249
3027600000.0 -0.006126565 8.88448e-05 -44.2547458836728 179.16917958348873
3028000000.0 -0.006081049 0.0004474197 -44.2969830848551 175.79198394039605
3028400000.0 -0.005953913 0.001203327 -44.33008050623709 168.5740402279739
3028800000.0 -0.005838206 0.001804997 -44.27794709193704 162.8199703734719
3029200000.0 -0.005529667 0.002365702 -44.41606310108325 156.83779351213695
3029600000.0 -0.005357974 0.002948107 -44.27137452258897 151.1791803227843
3030000000.0 -0.004913697 0.003517633 -44.374911113486 144.40176184206518
3030400000.0 -0.004524038 0.004033783 -44.34880646866031 138.27874049614644
3030800000.0 -0.004079054 0.004511329 -44.31906617969705 132.11926005162059
3031200000.0 -0.003519751 0.00479243 -44.51536476703862 126.29503905878283
3031600000.0 -0.003001935 0.005118574 -44.53316540130008 120.39071806971745
3032000000.0 -0.002450495 0.00562304 -44.24540752864772 113.54735101224068
3032400000.0 -0.001877889 0.005677018 -44.466632119307626 108.30359166636744
3032800000.0 -0.001368468 0.005861162 -44.40980520462059 103.14202765316452
3033200000.0 -0.0006638018 0.005865963 -44.57795289140098 96.45621749759205
3033600000.0 -4.730385e-05 0.005991959 -44.44835267794399 90.45231528720734
3034000000.0 0.0004958387 0.005992452 -44.41827586234646 85.2699004886083
3034400000.0 0.001220731 0.005785255 -44.56436531682464 78.0849560954724
3034800000.0 0.001895859 0.005790277 -44.30373440968645 71.87046019262407
3035200000.0 0.002603039 0.005467248 -44.357292084206385 64.54017829507283
3035600000.0 0.002999748 0.005111791 -44.54335507380935 59.59434662961643
3036000000.0 0.003468515 0.004712179 -44.655267851962236 53.644161512553076
3036400000.0 0.003907023 0.004349021 -44.662430318830445 48.0644782033355
3036800000.0 0.004348211 0.003960468 -44.61021243288422 42.32810343343269
3037200000.0 0.004784742 0.003517445 -44.52641637614916 36.32101446822739
3037600000.0 0.005164441 0.002848454 -44.58606231502696 28.878988048544947
3038000000.0 0.005410747 0.002511899 -44.487230261773846 24.902734348670794
3038400000.0 0.005678209 0.001725087 -44.53235525384681 16.899216646323794
3038800000.0 0.00576648 0.001148336 -44.61288470441108 11.262537539892183
3039200000.0 0.005814127 0.0005879209 -44.66612805053863 5.774086646242067
3039600000.0 0.005970404 -6.698541e-05 -44.47937895766468 -0.6428074639178735
3040000000.0 0.005864095 -0.0005761692 -44.594255231292976 -5.61151277120949
3040400000.0 0.005698494 -0.001238899 -44.684226804193216 -12.26569498621321
3040800000.0 0.005480744 -0.001870369 -44.74477925968709 -18.842816800611484
3041200000.0 0.005312429 -0.002398847 -44.688230377767454 -24.301732001958428
3041600000.0 0.004965461 -0.002966189 -44.755509072459006 -30.852586196293057
3042000000.0 0.004615573 -0.003400109 -44.83276203932667 -36.377596882725825
3042400000.0 0.00445351 -0.003862378 -44.59023756389616 -40.933988835337935
3042800000.0 0.003859256 -0.004319099 -44.74327241905588 -48.2181717048643
3043200000.0 0.003371185 -0.004741913 -44.70433280047574 -54.589702388062925
3043600000.0 0.002901021 -0.005102527 -44.627892848654184 -60.37978058851987
3044000000.0 0.002354224 -0.005429492 -44.55662106618217 -66.5584781741578
3044400000.0 0.001791234 -0.00556224 -44.66647024969039 -72.14964278407912
3044800000.0 0.001232273 -0.005708635 -44.67156347519645 -77.8189632664181
3045200000.0 0.0006134767 -0.005856569 -44.59974085304658 -84.0200645458745
3045600000.0 -4.197584e-05 -0.005831804 -44.68371661987184 -90.4123933077598
3046000000.0 -0.0006672032 -0.005789647 -44.68966175470257 -96.57380933266212
3046400000.0 -0.001249466 -0.005635876 -44.77239439211013 -102.50021677970996
3046800000.0 -0.001885475 -0.005486139 -44.72979607209291 -108.96680917559131
3047200000.0 -0.002413392 -0.005187241 -44.850283844427885 -114.95045928461272
3047600000.0 -0.002854124 -0.005064691 -44.71120322555428 -119.40272432904328
3048000000.0 -0.003471615 -0.004725818 -44.63625079591133 -126.3012328642857
3048400000.0 -0.003939749 -0.004204204 -44.789017704432446 -133.1401129253175
3048800000.0 -0.004360617 -0.003859343 -44.696784984783584 -138.48972023419856
3049200000.0 -0.004693825 -0.003418153 -44.7216700683472 -143.93701830188263
3049600000.0 -0.005062634 -0.002914384 -44.66941376099534 -150.07244816870613
3050000000.0 -0.005353149 -0.002315248 -44.68309383843551 -156.61141787020975
3050400000.0 -0.005581069 -0.001671371 -44.69264973789333 -163.32854136320447
3050800000.0 -0.005614596 -0.00122661 -44.811143008671635 -167.67632889289837
3051200000.0 -0.005820458 -0.0005382997 -44.66386823642174 -174.71608335155298
3051600000.0 -0.005801342 2.837529e-05 -44.72932672910724 179.71975942896327
3052000000.0 -0.005779963 0.0005823428 -44.71763600556922 174.24675053423692
3052400000.0 -0.005636675 0.001220874 -44.780433056813315 167.77881520507856
3052800000.0 -0.005414302 0.00199483 -44.77633856843404 159.77432847172201
3053200000.0 -0.005347682 0.002431791 -44.6203855216752 155.54693145324455
3053600000.0 -0.004982422 0.002993215 -44.712906667294746 149.00444587567367
3054000000.0 -0.004671196 0.003406518 -44.759358998328906 143.8982120113857
3054400000.0 -0.004347331 0.00397162 -44.600079259784344 137.58590733161392
3054800000.0 -0.003847711 0.00435162 -44.71835916129476 131.4831775411552
3055200000.0 -0.003333807 0.004749401 -44.7274296665024 125.06665281655285
3055600000.0 -0.002759187 0.005105493 -44.72638598343022 118.38833856895879
3056000000.0 -0.002199413 0.005249677 -44.89501556313406 112.73181170572786
3056400000.0 -0.001678888 0.005531378 -44.76061036527844 106.88413243709323
3056800000.0 -0.001093591 0.005760738 -44.63668313538774 100.74885489697098
3057200000.0 -0.0004842236 0.005859615 -44.61306142539851 94.72404280831677
3057600000.0 0.0001632987 0.005823013 -44.69363064907533 88.39363664267434
3058000000.0 0.0007681113 0.005675452 -44.84116220942613 82.29246456650019
3058400000.0 0.001408975 0.005658688 -44.684449548447354 76.01805991992178
3058800000.0 0.001901991 0.00549944 -44.702949606923816 70.92196572542159
3059200000.0 0.002476957 0.005156223 -44.85160801997738 64.34120575929506
3059600000.0 0.003109636 0.004955773 -44.655991645330815 57.89265425439665
3060000000.0 0.003527356 0.004654692 -44.67138678453608 52.84491332102283
3060400000.0 0.004031267 0.00416236 -44.73966459839798 45.91661907799894
3060800000.0 0.004358382 0.003671521 -44.88443349841467 40.11094042797909
3061200000.0 0.004725296 0.003293872 -44.791496003177365 34.87927708604907
3061600000.0 0.004974492 0.002810452 -44.86193822327651 29.465261044349706
3062000000.0 0.005299311 0.002194239 -44.82838663974974 22.492547652741614
3062400000.0 0.005592407 0.001657435 -44.68238796027375 16.5083690121943
3062800000.0 0.005607761 0.0009232889 -44.908049289624486 9.34957399572895
3063200000.0 0.005657946 0.0004368627 -44.921009443486625 4.415175512904997
3063600000.0 0.005736132 -0.0002338686 -44.82040404494108 -2.334720755734985
3064000000.0 0.005709201 -0.0007912939 -44.785857026716975 -7.890909822247377
3064400000.0 0.005640219 -0.001366973 -44.72619077271805 -13.623609674834693
3064800000.0 0.005388812 -0.001950144 -44.83565690427017 -19.89455962837401
3065200000.0 0.00525093 -0.002580739 -44.65561641330963 -26.17329857491679
3065600000.0 0.004817756 -0.003137901 -44.807339929877344 -33.07700410589087
3066000000.0 0.004571839 -0.003569404 -44.73113588059373 -37.980476576392284
3066400000.0 0.00407632 -0.003985543 -44.88104108172501 -44.35487378311645
3066800000.0 0.003703532 -0.004369903 -44.83964630048209 -49.71842478651214
3067200000.0 0.003190584 -0.004853837 -44.71860586873145 -56.681787841660444
3067600000.0 0.00275688 -0.005131152 -44.69427555531476 -61.75162397644224
3068000000.0 0.002212235 -0.005312922 -44.79894935060607 -67.39375899125339
3068400000.0 0.001526082 -0.005668414 -44.62686698658477 -74.93178950845406
3068800000.0 0.000985162 -0.00558837 -44.9213841746175 -80.00217177181226
3069200000.0 0.0003534125 -0.005759676 -44.77571834119985 -86.4887453356038
3069600000.0 -0.0001694548 -0.005778515 -44.75994197250032 -91.67971584091288
3070000000.0 -0.0007860569 -0.005734169 -44.74973607820753 -97.80562433055366
3070400000.0 -0.001511168 -0.005567839 -44.77758486459574 -105.18485403779252
3070800000.0 -0.001995764 -0.005440118 -44.739457210685785 -110.14608867898197
3071200000.0 -0.002446787 -0.005047973 -45.02119844884565 -115.85978508688231
3071600000.0 -0.003036743 -0.004832424 -44.871271778814446 -122.14566010085935
3072000000.0 -0.003669788 -0.004430623 -44.80201343307844 -129.63420839354555
3072400000.0 -0.004046414 -0.004109267 -44.78083741570502 -134.55845007458038
3072800000.0 -0.004426294 -0.003667492 -44.80926100524588 -140.35589214585733
3073200000.0 -0.004877177 -0.003213132 -44.671046225100696 -146.6227165423419
3073600000.0 -0.005119071 -0.002708991 -44.7439136338631 -152.1123937153442
3074000000.0 -0.005381938 -0.002173738 -44.7249391611141 -158.0064624965133
3074400000.0 -0.005548131 -0.001611283 -44.76539813293597 -163.80569562635165
3074800000.0 -0.005647789 -0.0009281118 -44.84670529256594 -170.66788463433753
3075200000.0 -0.005755235 -0.0003640116 -44.781399873390015 -176.38093254908316
3075600000.0 -0.005788921 0.0002295208 -44.741225851226474 177.7295097306088
3076000000.0 -0.005690321 0.0008875076 -44.792882727431085 171.1351176620302
3076400000.0 -0.005634265 0.001464945 -44.69915540365369 165.42543994064448
3076800000.0 -0.005435398 0.002209059 -44.63145062245408 157.8821505580273
3077200000.0 -0.005128359 0.002624453 -44.79021279515851 152.8987683226127
3077600000.0 -0.004910831 0.00310283 -44.718058170740605 147.71391039993506
3078000000.0 -0.004500248 0.003606447 -44.78094834411712 141.29171528546507
3078400000.0 -0.004104252 0.004027951 -44.8057534288744 135.53756614222152
3078800000.0 -0.003662734 0.004425456 -44.81482359913461 129.61289852908018
3079200000.0 -0.003159514 0.004776601 -44.84146735059919 123.48290401840057
3079600000.0 -0.002655148 0.005029785 -44.9014520769503 117.82890064573898
3080000000.0 -0.002000831 0.005447853 -44.725966227897835 110.16675091856898
3080400000.0 -0.001403934 0.005534587 -44.867466462198955 104.2337382051656
3080800000.0 -0.000906055 0.005655099 -44.84111851779577 99.10251792205014
3081200000.0 -0.0002934942 0.005765086 -44.77264307525597 92.91434925768704
3081600000.0 0.0003692787 0.005750465 -44.788067895834246 86.3256713235355
3082000000.0 0.000901279 0.005696565 -44.78036539117112 81.0095006322299
3082400000.0 0.001628903 0.005617877 -44.6579783756423 73.83048767329636
3082800000.0 0.002102175 0.005362099 -44.79238222561684 68.5926700209634
3083200000.0 0.002526011 0.005113338 -44.87756563451167 63.7104296643366
3083600000.0 0.003211481 0.004760571 -44.81793511766974 55.99639921077634
3084000000.0 0.003598219 0.004514419 -44.77201708107799 51.443392318428046
3084400000.0 0.004103184 0.003995626 -44.841109818046306 44.23911572495945
3084800000.0 0.004515664 0.003679404 -44.69425930252435 39.17346027200662
3085200000.0 0.004865868 0.003100992 -44.776493810309354 32.50914703525454
3085600000.0 0.00514713 0.002661785 -44.73944572208488 27.34527712206578
3086000000.0 0.005351605 0.002060294 -44.830089229288134 21.056016296022765
3086400000.0 0.005566723 0.001457779 -44.79994590902483 14.674733921988354
3086800000.0 0.00580728 0.0008990015 -44.617694051927714 8.79987529601186
3087200000.0 0.005798715 0.0002631364 -44.72443092300364 2.5982082834482303
3087600000.0 0.005856896 -0.0004129861 -44.62510989991374 -4.033409550238431
3088000000.0 0.005717783 -0.0009707265 -44.732040181729246 -9.635416942309503
3088400000.0 0.005493702 -0.001605991 -44.84656521097178 -16.295389220808456
3088800000.0 0.0053807 -0.002125336 -44.75357450287602 -21.55364686556256
3089200000.0 0.005152881 -0.002787885 -44.64395965414562 -28.414905184709372
3089600000.0 0.00488945 -0.003258981 -44.618326213473914 -33.68477505977858
3090000000.0 0.004547474 -0.003805764 -44.53909640393314 -39.92583676006684
3090400000.0 0.004096284 -0.004219878 -44.61088199229231 -45.85146168031322
3090800000.0 0.00345248 -0.004578408 -44.83049198232044 -52.98083148407319
3091200000.0 0.003068023 -0.004918593 -44.73591935964773 -58.045723081758695
3091600000.0 0.00260033 -0.005231588 -44.66848071921804 -63.57059698337434
3092000000.0 0.001878274 -0.005450097 -44.7845044029589 -70.98444592435426
3092400000.0 0.001349034 -0.005661161 -44.70202285745293 -76.59659808584288
3092800000.0 0.0007743703 -0.005730003 -44.758300589046144 -82.30350078152418
3093200000.0 0.0001040442 -0.005763515 -44.78483638565743 -88.96579672140983
3093600000.0 -0.0004729276 -0.005779903 -44.732610040642555 -94.67767826751856
3094000000.0 -0.0009555299 -0.005667179 -44.81092015258125 -99.5704941442974
3094400000.0 -0.001601875 -0.005673942 -44.58924963322926 -105.76550645987673
3094800000.0 -0.002190301 -0.005365952 -44.73778885693848 -112.20454492082972
3095200000.0 -0.002856917 -0.005039968 -44.74135963875376 -119.54682852732535
3095600000.0 -0.00322398 -0.004857033 -44.68715069372958 -123.57523656346537
3096000000.0 -0.003800467 -0.004392107 -44.719301855868146 -130.86946310847728
3096400000.0 -0.004250205 -0.00391066 -44.76806450913016 -137.38250249261574
3096800000.0 -0.004605734 -0.003532809 -44.72453549559052 -142.51014109953044
3097200000.0 -0.004919697 -0.00298924 -44.79660937114179 -148.71686137005136
3097600000.0 -0.005345696 -0.002436477 -44.620187243862176 -155.49731114732404
3098000000.0 -0.005439262 -0.001866987 -44.80549894429936 -161.05559053742843
3098400000.0 -0.005738355 -0.001255171 -44.621283855944526 -167.66180991512707
3098800000.0 -0.005805558 -0.0007038885 -44.65974367454683 -173.0869783994663
3099200000.0 -0.005691272 1.061092e-06 -44.895813006748085 179.9893176617511
3099600000.0 -0.005838057 0.0005984405 -44.629237356793325 174.14723585183543
3100000000.0 -0.00560781 0.001204126 -44.828377325298234 167.8812883196614
3100400000.0 -0.005629082 0.001696349 -44.6137394172943 163.22958491830178
3100800000.0 -0.005390199 0.002201967 -44.69763101024278 157.77934105071563
3101200000.0 -0.00508801 0.002838015 -44.69260332998087 150.8478830151463
3101600000.0 -0.0047502 0.003427512 -44.645509473981775 144.18762637101315
3102000000.0 -0.004356995 0.003936001 -44.624893093312075 137.9061259160083
3102400000.0 -0.003954947 0.004342442 -44.6220094214805 132.32618192564613
3102800000.0 -0.003481846 0.004712413 -44.64325085218433 126.45946848842738
3103200000.0 -0.002986527 0.005135902 -44.52264261367803 120.17800101632955
3103600000.0 -0.002400214 0.005404968 -44.562459234745056 113.94483561378335
3104000000.0 -0.00183589 0.005611272 -44.577116687322146 108.11700613971703
