## frequency[GHz]  I  Q  LogM[dB] Phase[deg]
3000000000.0 -0.003636579 -0.00578832 -43.30410211168968 -122.13956763173204
3000400000.0 -0.004170431 -0.005291316 -43.43034844402187 -128.2439479272614
3000800000.0 -0.004708885 -0.004760297 -43.48392265784115 -134.68892121071505
3001200000.0 -0.005137083 -0.004378144 -43.41437574374914 -139.56028435141366
3001600000.0 -0.005527 -0.003721611 -43.526354444075714 -146.04560682469125
3002000000.0 -0.005955619 -0.00316875 -43.41889593238625 -151.98431807965278
3002400000.0 -0.00627525 -0.002400295 -43.454367264645185 -159.0680528736685
3002800000.0 -0.006534387 -0.001816814 -43.37251358687694 -164.4619986145038
3003200000.0 -0.00651591 -0.001148706 -43.58757886492502 -170.00191658179673
3003600000.0 -0.00669583 -0.0003846998 -43.46959951539026 -176.71176385398755
3004000000.0 -0.006549099 0.0002982193 -43.667373026674376 177.3927845571031
3004400000.0 -0.006573566 0.0009526695 -43.55370903081603 171.75386037570854
3004800000.0 -0.006259497 0.001587875 -43.79836349887651 165.7657774985692
3005200000.0 -0.006123988 0.00227679 -43.69704348325773 159.60575957995246
3005600000.0 -0.005906022 0.002990114 -43.58309018542645 153.14771671817218
3006000000.0 -0.005456996 0.003531127 -43.74197307367115 147.09379802125895
3006400000.0 -0.005110748 0.004185237 -43.60155526078137 140.68564819598078
3006800000.0 -0.004630574 0.004700982 -43.61097138945918 134.5677028896262
3007200000.0 -0.004162949 0.005115007 -43.61576231736872 129.14109724769207
3007600000.0 -0.003604276 0.005546669 -43.58958987114603 123.01617783749224
3008000000.0 -0.003037473 0.005803283 -43.674988168939905 117.6278288828888
3008400000.0 -0.002289757 0.006078495 -43.74779269120196 110.6412921090949
3008800000.0 -0.001700744 0.00633159 -43.667178049658645 105.03545115948697
3009200000.0 -0.0009900496 0.006387728 -43.78997603684144 98.81031044051144
3009600000.0 -0.0002489956 0.006461622 -43.786724928832584 92.20677437361869
3010000000.0 0.0004144666 0.006423388 -43.826672889692745 86.30813015390073
3010400000.0 0.001028863 0.006360099 -43.81853351991176 80.81095800579057
3010800000.0 0.001702365 0.00620083 -43.83541928798083 74.64834803343079
3011200000.0 0.002424056 0.005957177 -43.83377414893075 67.85792663768316
3011600000.0 0.002997826 0.005844034 -43.651229385731526 62.843444970485926
3012000000.0 0.003492855 0.00539076 -43.844673088770975 57.0594384872249
3012400000.0 0.004062029 0.004912618 -43.9111154372193 50.41414247623129
3012800000.0 0.004572744 0.004516073 -43.8399839306846 44.64275141171928
3013200000.0 0.00503104 0.003854075 -43.96149443480815 37.454256132389695
3013600000.0 0.005307774 0.003303539 -44.0798060834252 31.897982199124215
3014000000.0 0.005644601 0.002729777 -44.05461571968472 25.808805204295577
3014400000.0 0.005996197 0.002104958 -43.9377747548635 19.343564641964207
3014800000.0 0.006174022 0.001578123 -43.913774925266715 14.33820013324658
3015200000.0 0.006293339 0.0008724864 -43.93969778261261 7.892974244767767
3015600000.0 0.006337747 0.0002820609 -43.952708523654174 2.548262324229635
3016000000.0 0.006210175 -0.0004368185 -44.11648906534498 -4.023510229759315
3016400000.0 0.006311721 -0.001077807 -43.87221546455312 -9.690516242912233
3016800000.0 0.006134329 -0.001917409 -43.83982132682082 -17.35769362757901
3017200000.0 0.0057762 -0.002340276 -44.10705368558699 -22.055744243168473
3017600000.0 0.005520381 -0.002959664 -44.06335006028657 -28.19727262408533
3018000000.0 0.005086934 -0.003633041 -44.08091183548845 -35.534073214516624
3018400000.0 0.004744112 -0.004033702 -44.11421867908889 -40.372996941101846
3018800000.0 0.004286148 -0.004522466 -44.10902368375126 -46.5367658262463
3019200000.0 0.003754581 -0.005004447 -44.073639968186285 -53.12097540743145
3019600000.0 0.003185772 -0.00534426 -44.12173932082442 -59.200366628570734
3020000000.0 0.002668717 -0.005558899 -44.19948954426551 -64.35526251490104
3020400000.0 0.00203833 -0.005850604 -44.158457374427805 -70.7918417550835
3020800000.0 0.001536268 -0.006038318 -44.10928766197509 -75.72566280059691
3021200000.0 0.000766803 -0.006198459 -44.08836509637695 -82.94784576044091
3021600000.0 0.000162133 -0.006213918 -44.12973402331418 -88.50538268890071
3022000000.0 -0.0004059732 -0.006207565 -44.12303876790265 -93.7418010156676
3022400000.0 -0.001248741 -0.006086152 -44.13405941851955 -101.59488164429655
3022800000.0 -0.001744961 -0.005991159 -44.09616599414577 -106.23851750848925
3023200000.0 -0.002406159 -0.005665691 -44.214793417821845 -113.01041765193135
3023600000.0 -0.002947999 -0.005388674 -44.233303967662536 -118.6818863460006
3024000000.0 -0.003659982 -0.005053435 -44.096857718892004 -125.9141708840914
3024400000.0 -0.004054508 -0.004577256 -44.27240961872501 -131.53434479910155
3024800000.0 -0.004470801 -0.00421532 -44.23002700844316 -136.68472948250235
3025200000.0 -0.00491378 -0.003644388 -44.268173293026116 -143.4368953552868
3025600000.0 -0.00534504 -0.00307659 -44.19818193618382 -150.07539025042382
3026000000.0 -0.005556437 -0.002472521 -44.31946756894392 -156.01174046457388
3026400000.0 -0.005702633 -0.00197122 -44.38830239191372 -160.9313498284687
3026800000.0 -0.005982746 -0.00120515 -44.28924602788997 -168.61088902939835
3027200000.0 -0.006042204 -0.0006478868 -44.326443718253834 -173.87973586374108
3027600000.0 -0.006071144 -2.847033e-05 -44.334493817156925 -179.73131624071618
3028000000.0 -0.005946198 0.0005334743 -44.48039573204482 174.87332740037792
3028400000.0 -0.005913888 0.00120196 -44.38674617331336 168.51148172849815
3028800000.0 -0.005855259 0.001875413 -44.224940470159936 162.2399724392266
3029200000.0 -0.005627565 0.002416868 -44.25844382512959 156.757948360537
3029600000.0 -0.00516546 0.002951324 -44.51091331668472 150.2581911372131
3030000000.0 -0.004917572 0.003472281 -44.40820802348496 144.77421375905277
3030400000.0 -0.004537678 0.004043629 -44.324859782171025 138.29503525548682
3030800000.0 -0.004115693 0.004557709 -44.2352457833812 132.0826025888012
3031200000.0 -0.003552984 0.004882165 -44.38192502994829 126.04516606339648
3031600000.0 -0.002982036 0.005235473 -44.40060879000052 119.66510017620094
3032000000.0 -0.002480662 0.005492668 -44.39817264426539 114.30543524579207
3032400000.0 -0.001899091 0.005827954 -44.251403740826305 108.04866318744006
3032800000.0 -0.001190183 0.005884872 -44.43115765162428 101.43353318550429
3033200000.0 -0.0007269835 0.006020636 -44.344288624659505 96.88505364692946
3033600000.0 -5.361145e-06 0.006012736 -44.41855383167216 90.05108671001966
3034000000.0 0.0006248375 0.005941104 -44.474882719540915 83.99616258129157
3034400000.0 0.001261058 0.005793183 -44.54059392756073 77.71945221138124
3034800000.0 0.00186987 0.005617584 -44.5526658280357 71.58945355609374
3035200000.0 0.002437672 0.005402318 -44.54355421211548 65.71381614391223
3035600000.0 0.002906637 0.005075142 -44.659027241173675 60.199355860251714
3036000000.0 0.003490143 0.004668824 -44.68789205830791 53.22033425284791
3036400000.0 0.003973414 0.004300279 -44.64953887409975 47.26238159249993
3036800000.0 0.004413479 0.003929521 -44.56926608522358 41.6801256017297
3037200000.0 0.004871085 0.003522844 -44.420371011265146 35.87503569032292
3037600000.0 0.005132571 0.002932265 -44.566589138044776 29.739556524018607
3038000000.0 0.005416528 0.002372619 -44.56328008087552 23.655013945518338
3038400000.0 0.005593172 0.001813105 -44.61289028170618 17.960827636003284
3038800000.0 0.005771758 0.001238912 -44.578209784943795 12.114750625297294
3039200000.0 0.005936531 0.0005913526 -44.48646408882614 5.688609102934399
3039600000.0 0.005836488 -1.445964e-05 -44.6769414052655 -0.14194746057580965
3040000000.0 0.005915236 -0.0005974013 -44.51648604275711 -5.7669560898004635
3040400000.0 0.005780047 -0.00116057 -44.58971885264128 -11.353394896588064
3040800000.0 0.005661491 -0.0018539 -44.49901030270502 -18.13144333151782
3041200000.0 0.005322603 -0.002488741 -44.618797165142475 -25.05983515820858
3041600000.0 0.005067344 -0.00304474 -44.565724924508174 -30.999771934814994
3042000000.0 0.004690763 -0.003481324 -44.66954393488382 -36.581542097831594
3042400000.0 0.00425615 -0.003957777 -44.71355633711263 -42.91963085945657
3042800000.0 0.003898967 -0.004401401 -44.61246925156509 -48.46397475304892
3043200000.0 0.003386598 -0.004770797 -44.655988099269194 -54.63058120566717
3043600000.0 0.002993708 -0.005144081 -44.5070415490364 -59.8018190620736
3044000000.0 0.00243777 -0.005320564 -44.65325173827659 -65.38374936320693
3044400000.0 0.001827574 -0.005507661 -44.727006957528125 -71.64291794513123
3044800000.0 0.001196928 -0.005757004 -44.61228620561911 -78.25506138627289
3045200000.0 0.0005803212 -0.005810261 -44.672977702551876 -84.2962892376576
3045600000.0 4.837665e-05 -0.005759286 -44.7923206764322 -89.51874022471357
3046000000.0 -0.0006178875 -0.005758602 -44.7439444721265 -96.12430162709116
3046400000.0 -0.001150546 -0.005655904 -44.77386174941241 -101.49843701663501
3046800000.0 -0.001813849 -0.005543828 -44.68213646311483 -108.11724192320811
3047200000.0 -0.002384167 -0.005333079 -44.669148183988234 -114.08715661773664
3047600000.0 -0.002923445 -0.005031634 -44.70263394071584 -120.15714663378841
3048000000.0 -0.003415737 -0.004788618 -44.60947479229078 -125.50038838628329
3048400000.0 -0.003928295 -0.004293697 -44.702189695212 -132.45533379014145
3048800000.0 -0.004333065 -0.003842748 -44.74408915675145 -138.43201188100605
3049200000.0 -0.004716088 -0.003442748 -44.67322045535818 -143.87052605687413
3049600000.0 -0.004999475 -0.002805186 -44.83281973022872 -150.70338634535761
3050000000.0 -0.005392777 -0.002334623 -44.617718748319525 -156.59140971092765
3050400000.0 -0.005554609 -0.001858765 -44.64595883574583 -161.49797008460465
3050800000.0 -0.005718619 -0.001168673 -44.6764826424441 -168.449914539941
3051200000.0 -0.005867103 -0.0006528921 -44.5780761450278 -173.65024134752488
3051600000.0 -0.005784013 8.904265e-05 -44.75438566147783 179.11802323590433
3052000000.0 -0.005783252 0.0006631679 -44.69982316250545 173.45844171387574
3052400000.0 -0.005612683 0.001294762 -44.79141693412437 167.00996319243075
3052800000.0 -0.005482114 0.001962251 -44.69749023536907 160.30583630376918
3053200000.0 -0.005241768 0.002495493 -44.723234880574836 154.54188543733395
3053600000.0 -0.005005125 0.003028172 -44.657060101893855 148.82546367496784
3054000000.0 -0.004679149 0.003476859 -44.68738490640091 143.38566855223564
3054400000.0 -0.004257886 0.004053705 -44.61399658730049 136.40723443912256
3054800000.0 -0.003818594 0.004422613 -44.66721652272107 130.80814195859267
3055200000.0 -0.003317885 0.004793727 -44.68672097770372 124.68829266317161
3055600000.0 -0.00286022 0.005045183 -44.732120548512626 119.5498096909091
3056000000.0 -0.002330727 0.005309635 -44.733440076083966 113.69963980402943
3056400000.0 -0.001656721 0.005510722 -44.800043375106036 106.73266568095522
3056800000.0 -0.001111164 0.005651759 -44.79162033357814 101.1227725178445
3057200000.0 -0.000538828 0.005749194 -44.769879390054314 95.35425488687704
3057600000.0 9.249768e-05 0.005762602 -44.78650868662869 89.08040298516201
3058000000.0 0.0007064778 0.005701407 -44.81418254128518 82.9363205730603
3058400000.0 0.001366284 0.005572217 -44.82588536086488 76.22311852896537
3058800000.0 0.001877323 0.005394532 -44.86445257927768 70.81185836608225
3059200000.0 0.002454861 0.005181712 -44.8311466391694 64.65052024002703
3059600000.0 0.00304291 0.004868506 -44.81991030879427 57.99382340614443
3060000000.0 0.003578448 0.004666023 -44.61211927345104 52.51482184225954
3060400000.0 0.003925703 0.004153219 -44.85978871567026 46.613118939722455
3060800000.0 0.004390733 0.003795256 -44.725956250344424 40.83943626226624
3061200000.0 0.004642184 0.003296181 -44.892582416685386 35.37664209918965
3061600000.0 0.005095491 0.002809368 -44.7035695130235 28.869878152510445
3062000000.0 0.005277225 0.002176648 -44.86956949227495 22.41422392408183
3062400000.0 0.005475827 0.001646817 -44.85496242597438 16.738295449372455
3062800000.0 0.005656572 0.001075941 -44.79458095889993 10.769622931024115
3063200000.0 0.005792403 0.000370411 -44.725101162871226 3.658952704540621
3063600000.0 0.005843222 -5.926481e-05 -44.66650553075637 -0.581101840359055
3064000000.0 0.005715349 -0.0007574162 -44.78353442119992 -7.549030732324487
3064400000.0 0.005582786 -0.001404553 -44.79643975293969 -14.121758495265142
3064800000.0 0.00546841 -0.001893644 -44.75092691269592 -19.100348575001746
3065200000.0 0.00517112 -0.002401594 -44.880079347504335 -24.911302682749316
3065600000.0 0.005062863 -0.002980438 -44.61984667943661 -30.48473827697655
3066000000.0 0.004510932 -0.003473388 -44.89281685824835 -37.59603480166806
3066400000.0 0.004092425 -0.003954817 -44.89608898264889 -44.020336498903376
3066800000.0 0.003676567 -0.004287527 -44.962088720128705 -49.386814235042095
3067200000.0 0.003231751 -0.004697134 -44.88019336689508 -55.47101161095433
3067600000.0 0.002731554 -0.005029579 -44.84681929745361 -61.493706094077666
3068000000.0 0.002042462 -0.005305512 -44.905271885577314 -68.94480038619051
3068400000.0 0.001642577 -0.005579161 -44.707609536083595 -73.59489075053772
3068800000.0 0.001008811 -0.005697194 -44.7527008493574 -79.95863070276057
3069200000.0 0.0004017319 -0.005736612 -44.80564416212643 -85.99414676913838
3069600000.0 -0.0001864829 -0.005821748 -44.69447812527683 -91.83467766159738
3070000000.0 -0.0007707193 -0.005589826 -44.970247183225354 -97.85038437708705
3070400000.0 -0.001351718 -0.00564749 -44.72095886202109 -103.46043037188676
3070800000.0 -0.001914413 -0.005490431 -44.70957273668694 -109.22273030119297
3071200000.0 -0.002629708 -0.005219927 -44.664439729736316 -116.73816686008021
3071600000.0 -0.003043589 -0.004875211 -44.81076748961975 -121.97648890762932
3072000000.0 -0.003622009 -0.004584172 -44.66818132640226 -128.31268417760617
3072400000.0 -0.004038076 -0.004174344 -44.71968136091249 -134.04938314643277
3072800000.0 -0.004477701 -0.003618503 -44.79603332137941 -141.05775880559557
3073200000.0 -0.004818717 -0.003225212 -44.73376120714205 -146.2052376144906
3073600000.0 -0.005125067 -0.002692593 -44.74743039196564 -152.28359063285654
3074000000.0 -0.005382516 -0.002073917 -44.77913127694472 -158.92801479118387
3074400000.0 -0.005590507 -0.001566969 -44.72252064857213 -164.3422918528307
3074800000.0 -0.005696798 -0.0008857225 -44.78364962330639 -171.1625659413782
3075200000.0 -0.005729575 -0.0003635955 -44.82009748382703 -176.3689121523929
3075600000.0 -0.00572375 0.0003840093 -44.82688254533124 176.16174893222222
3076000000.0 -0.005598655 0.0008563554 -44.937888939040924 171.30359195385392
3076400000.0 -0.00562444 0.001387411 -44.74187952917773 166.14317668847204
3076800000.0 -0.005378951 0.002013187 -44.81669874577371 159.48056738921034
3077200000.0 -0.005115537 0.002679164 -44.76947938008131 152.35756667074344
3077600000.0 -0.004845898 0.003105881 -44.797887338779844 147.34297472741568
3078000000.0 -0.004465694 0.003594233 -44.83320100029954 141.17100100404272
3078400000.0 -0.004086026 0.004214879 -44.626744751220485 134.11068248685663
3078800000.0 -0.00360857 0.00444977 -44.83831908963273 129.04054966257547
3079200000.0 -0.003067637 0.004819486 -44.862785634278694 122.47704203231534
3079600000.0 -0.00259088 0.005178817 -44.74530120530667 116.57807363480583
3080000000.0 -0.001968867 0.005361418 -44.86499531440359 110.16468821404494
3080400000.0 -0.001542587 0.005452571 -44.93358272089479 105.79674004588561
3080800000.0 -0.0009494536 0.005669488 -44.809000748955825 99.50694707208179
3081200000.0 -0.0004036957 0.005705387 -44.85260893958411 94.04732839407377
3081600000.0 0.000260411 0.005753589 -44.79233576668706 87.40852614880025
3082000000.0 0.0009382726 0.00558698 -44.93566666030315 80.46675574375433
3082400000.0 0.00142505 0.005512825 -44.891601050113046 75.50646360850118
3082800000.0 0.002121366 0.005393797 -44.73748110117807 68.53041777236685
3083200000.0 0.002661139 0.005146859 -44.74025135515993 62.65916610803196
3083600000.0 0.003175822 0.004837193 -44.75159015710442 56.71340593451108
3084000000.0 0.003729335 0.004559374 -44.5972270858703 50.718587582652546
3084400000.0 0.004088691 0.004083933 -44.76306811100716 44.966643113873445
3084800000.0 0.004595343 0.003659895 -44.62029762778571 38.535065903978484
3085200000.0 0.004859302 0.003045626 -44.82953904577548 32.07792404947169
3085600000.0 0.005200011 0.002608153 -44.705365810711385 26.636824061346193
3086000000.0 0.005407941 0.002094531 -44.7323586516149 21.171712299303863
3086400000.0 0.005672065 0.001491206 -44.63491848880686 14.729932713054605
3086800000.0 0.00577762 0.0008592665 -44.67000755828397 8.459210309163618
3087200000.0 0.005768602 0.0002827269 -44.76816874927687 2.8058975364539123
3087600000.0 0.005791107 -0.0005044138 -44.71194411511882 -4.977981920356567
3088000000.0 0.005764494 -0.001008863 -44.65374985421172 -9.92698375924919
3088400000.0 0.005615854 -0.001584088 -44.6791922390816 -15.75239448962524
3088800000.0 0.005285128 -0.002229515 -44.82760343322142 -22.87229968073276
3089200000.0 0.005157704 -0.00260928 -44.76120239932693 -26.834826833630807
3089600000.0 0.004871042 -0.003260362 -44.63984631914442 -33.79580535678989
3090000000.0 0.004420246 -0.003761162 -44.72564553346106 -40.39426973810534
3090400000.0 0.004062658 -0.004086741 -44.78775039586598 -45.16931926406086
3090800000.0 0.003548515 -0.004628618 -44.68315949045662 -52.524538733122434
3091200000.0 0.003060371 -0.004891239 -44.77685035775274 -57.96643509094034
3091600000.0 0.002536737 -0.005174762 -44.786893268596955 -63.88529321723455
3092000000.0 0.00195125 -0.005464053 -44.728439350455275 -70.34801266466931
3092400000.0 0.001413057 -0.005723864 -44.58928363754693 -76.13260390581297
3092800000.0 0.0007844921 -0.005733254 -44.751415351099354 -82.20849528485242
3093200000.0 0.0002624244 -0.005824903 -44.685420123031406 -87.42044627647417
3093600000.0 -0.0005013785 -0.00581158 -44.68191112645669 -94.93083086550128
3094000000.0 -0.001129115 -0.005831217 -44.52496137860594 -100.95872561775245
3094400000.0 -0.001665658 -0.00562652 -44.630359355373265 -106.49070190412601
3094800000.0 -0.002298427 -0.005389362 -44.64351632055965 -113.09702536910085
3095200000.0 -0.00278224 -0.005161524 -44.63666471371313 -118.32620335074516
3095600000.0 -0.003321833 -0.004849589 -44.615131344199746 -124.41005404721157
3096000000.0 -0.003775503 -0.004445103 -44.68350418535559 -130.3433186750423
3096400000.0 -0.004195027 -0.003971172 -44.766638545914965 -136.57022080065664
3096800000.0 -0.004607314 -0.003534524 -44.72109829818649 -142.50620261150277
3097200000.0 -0.005037827 -0.002981571 -44.65092656398251 -149.38139527866934
3097600000.0 -0.005252793 -0.002434654 -44.74704095558405 -155.13241681111379
3098000000.0 -0.005473986 -0.001859406 -44.75968690417413 -161.2383803127439
3098400000.0 -0.005777432 -0.001322264 -44.54357670776915 -167.10890088292356
3098800000.0 -0.005831411 -0.0007819434 -44.607132098991784 -172.36267264370443
3099200000.0 -0.005853263 -0.0001000346 -44.65077092314209 -179.0208875878267
3099600000.0 -0.005758198 0.0005708997 -44.75178611642613 174.33788269017614
3100000000.0 -0.005743841 0.001223646 -44.623191588785645 167.9737098268102
3100400000.0 -0.005545202 0.001655097 -44.75102861333202 163.38101889494297
3100800000.0 -0.005369302 0.002244144 -44.70241401756924 157.31710940061436
3101200000.0 -0.005106753 0.002866702 -44.64745049770318 150.69210055267442
3101600000.0 -0.00470692 0.003380975 -44.738405805507576 144.31035805716323
3102000000.0 -0.004363271 0.003912814 -44.640954199714386 138.1154638433007
3102400000.0 -0.003967053 0.004296334 -44.660247507180785 132.71807429290882
3102800000.0 -0.003363048 0.004682589 -44.78381690086998 125.68600905140062
3103200000.0 -0.00293153 0.005010259 -44.72414389269361 120.33213657879882
3103600000.0 -0.0023639 0.005325914 -44.691169457376986 113.93397927576079
3104000000.0 -0.0017703 0.005497919 -44.76759957983716 107.84827605346219
