## frequency[GHz]  I  Q  LogM[dB] Phase[deg]
3000000000.0 -0.003615333 -0.00570444 -43.409278501937536 -122.36551204195158
3000400000.0 -0.004272014 -0.005332798 -43.30786933569294 -128.69762562337394
3000800000.0 -0.00470462 -0.004839481 -43.41473237585998 -134.19044738594144
3001200000.0 -0.005260082 -0.004242959 -43.40357922227463 -141.10918528048668
3001600000.0 -0.005641939 -0.003677351 -43.4338070754081 -146.90415339500723
3002000000.0 -0.005885632 -0.003066412 -43.56117716861366 -152.4805036496206
3002400000.0 -0.006198416 -0.00254452 -43.47802576083082 -157.68129436707721
3002800000.0 -0.00654269 -0.001804718 -43.36640242838814 -164.5791570335477
3003200000.0 -0.006635311 -0.0009610307 -43.47261298591678 -171.75882618269372
3003600000.0 -0.006770082 -0.0002554134 -43.38194445924097 -177.83943934268638
3004000000.0 -0.006649574 0.0003282402 -43.53355409979419 177.17402571274332
3004400000.0 -0.006681201 0.001042175 -43.3985031744302 171.1340971555758
3004800000.0 -0.006403549 0.001765083 -43.55355068321798 164.58959038459713
3005200000.0 -0.006174097 0.002394662 -43.57991977506663 158.80090668904842
3005600000.0 -0.005843271 0.003004939 -43.647830002115455 152.7852206739759
3006000000.0 -0.00554222 0.003574511 -43.61577325817427 147.1795966904774
3006400000.0 -0.005079623 0.004145993 -43.666140906563655 140.77864483154843
3006800000.0 -0.004591604 0.004673846 -43.672627467209665 134.49144447885544
3007200000.0 -0.003974803 0.005139545 -43.745436825062214 127.71752173925347
3007600000.0 -0.00353409 0.005584315 -43.59773389280731 122.32808628672538
3008000000.0 -0.00294437 0.00583888 -43.68943673164842 116.76042329415826
3008400000.0 -0.002259769 0.006097432 -43.7381127275724 110.33520720976094
3008800000.0 -0.001695912 0.006263681 -43.75616644051973 105.14979319648336
3009200000.0 -0.0008776858 0.006451541 -43.727087825264505 97.74711911363472
3009600000.0 -0.000278489 0.006504286 -43.728053086926224 92.45169178690468
3010000000.0 0.0005402874 0.006481744 -43.73609165444723 85.23511116513286
3010400000.0 0.00121115 0.006409959 -43.710549293708226 79.3002099501811
3010800000.0 0.001795312 0.006242071 -43.74825520720894 73.95398151146037
3011200000.0 0.002435128 0.005853074 -43.95900109140704 67.41060982349359
3011600000.0 0.003097924 0.005631648 -43.83917552815 61.18516341463568
3012000000.0 0.00367013 0.005371697 -43.73403208920203 55.65775364896411
3012400000.0 0.004075598 0.004971457 -43.83777850202151 50.655116845871824
3012800000.0 0.004629711 0.004518609 -43.78283251656674 44.304204185423
3013200000.0 0.005119875 0.00384623 -43.87146182713104 36.91516242943318
3013600000.0 0.005409038 0.003369463 -43.913566051718256 31.920100459717357
3014000000.0 0.005759109 0.00283691 -43.849405354857794 26.22464026326986
3014400000.0 0.006002544 0.00202893 -43.96345913084548 18.675854013960468
3014800000.0 0.006097756 0.00150101 -44.0411089456937 13.828862779920614
3015200000.0 0.006139267 0.0007685561 -44.17013574503774 7.135562659861463
3015600000.0 0.006351958 0.0001399231 -43.93974075029498 1.261926908105141
3016000000.0 0.006419316 -0.0006040095 -43.81194428572489 -5.375277337288881
3016400000.0 0.006179282 -0.001178961 -44.025958112540586 -10.801788573730086
3016800000.0 0.006011454 -0.00185599 -44.02499214510858 -17.157668658358133
3017200000.0 0.005766303 -0.00245306 -44.05963942241203 -23.04552976334369
3017600000.0 0.005544905 -0.003080969 -43.95359928528055 -29.058285262887917
3018000000.0 0.005030456 -0.003590462 -44.179718261285174 -35.517152162969246
3018400000.0 0.004699172 -0.004096861 -44.104247058672776 -41.082769120532994
3018800000.0 0.004262995 -0.004475547 -44.17895172821234 -46.39335963343439
3019200000.0 0.003809487 -0.004994496 -44.03873940470986 -52.665893016098906
3019600000.0 0.003296392 -0.005362113 -44.02102453212338 -58.41862233512867
3020000000.0 0.002555929 -0.005619915 -44.18890201705641 -65.5440297951671
3020400000.0 0.001955686 -0.005873458 -44.16549378692189 -71.58378288181424
3020800000.0 0.00140873 -0.006021095 -44.175036361760945 -76.83161869036758
3021200000.0 0.0006202683 -0.006236782 -44.05804391239553 -84.32042429210473
3021600000.0 1.698035e-05 -0.006236444 -44.101227264793465 -89.84399763944256
3022000000.0 -0.0005845662 -0.006171331 -44.15363022872495 -95.41107587648614
3022400000.0 -0.001159718 -0.006021687 -44.24746782901161 -100.90113635423067
3022800000.0 -0.001867668 -0.005918947 -44.14289850133669 -107.51260030789865
3023200000.0 -0.002405078 -0.005712003 -44.155401071539785 -112.83385956054192
3023600000.0 -0.003032783 -0.005413877 -44.144508763505485 -119.25697798635464
3024000000.0 -0.003592835 -0.005017656 -44.19242219167621 -125.60412272427726
3024400000.0 -0.004159615 -0.004633712 -44.114629351678204 -131.9138549783363
3024800000.0 -0.004502147 -0.004155552 -44.25529563794524 -137.29250660741295
3025200000.0 -0.004905921 -0.003671459 -44.254169840530686 -143.18980853759786
3025600000.0 -0.005235106 -0.00314338 -44.28440546287608 -149.01760599544204
3026000000.0 -0.005497968 -0.002471455 -44.39665967443058 -155.79505641740394
3026400000.0 -0.005763887 -0.001883485 -44.3450744383322 -161.90398466173417
3026800000.0 -0.005888936 -0.001281502 -44.39832462851584 -167.72316311329354
3027200000.0 -0.006013592 -0.0006252807 -44.37061947679992 -174.0638362857864
3027600000.0 -0.006093486 -0.0001129727 -44.30119110990997 -178.93786291984142
3028000000.0 -0.005897191 0.0005851398 -44.54454763963564 174.3334611788744
3028400000.0 -0.005890782 0.001245386 -44.4066444838174 168.06272115226622
3028800000.0 -0.00572001 0.001802573 -44.4408632070831 162.50855766169215
3029200000.0 -0.005515425 0.002421309 -44.403009981559656 156.29819973304663
3029600000.0 -0.005279451 0.003041299 -44.30367434803891 150.0553258146425
3030000000.0 -0.004887819 0.003503283 -44.41726345288817 144.36941281526495
3030400000.0 -0.004525134 0.004010236 -44.37007705670081 138.45219640494395
3030800000.0 -0.004037707 0.00452894 -44.33982564141872 131.71811044675616
3031200000.0 -0.003493285 0.004897307 -44.41451548762458 125.50054174815192
3031600000.0 -0.003056916 0.00515796 -44.4430972127794 120.65352154760149
3032000000.0 -0.002444782 0.005444369 -44.48329094607762 114.18236015864302
3032400000.0 -0.001821224 0.005657175 -44.51973331264932 107.84501312854775
3032800000.0 -0.001259931 0.005927254 -44.35100093797349 102.0005019192066
3033200000.0 -0.0006035096 0.005919732 -44.509053397788286 95.8211244152809
3033600000.0 6.633598e-05 0.006074078 -44.329874748462466 89.37428847860456
3034000000.0 0.0005814577 0.005901451 -44.538866987330216 84.37292778205061
3034400000.0 0.001331589 0.005798101 -44.511058838663274 77.06576567209093
3034800000.0 0.00190012 0.005574613 -44.598361880287705 71.17820201651413
3035200000.0 0.002504647 0.005427418 -44.46965491891821 65.22760223288056
3035600000.0 0.002955022 0.005184073 -44.484674464696724 60.316022377870745
3036000000.0 0.003507988 0.004743096 -44.58384073779068 53.513415951576846
3036400000.0 0.00406859 0.004422364 -44.42363756777816 47.38583793575792
3036800000.0 0.004366016 0.00388275 -44.66763919760808 41.64707575819881
3037200000.0 0.004811887 0.003362023 -44.62716800413573 34.94166043124145
3037600000.0 0.005177709 0.002845219 -44.571255260859445 28.789371705649778
3038000000.0 0.00527656 0.002313723 -44.78922099627514 23.67700869497248
3038400000.0 0.005669776 0.001850423 -44.489109437123744 18.07493020013616
3038800000.0 0.005919699 0.001154792 -44.391805122751684 11.038411348429534
3039200000.0 0.005839902 0.0005172308 -44.637954107913444 5.061388866004354
3039600000.0 0.005865043 -5.34233e-05 -44.6342156720204 -0.5218793736326185
3040000000.0 0.005856595 -0.0006068583 -44.60071437720088 -5.915855758865249
3040400000.0 0.005713658 -0.001276391 -44.65021754418253 -12.592713802597219
3040800000.0 0.005384606 -0.001739821 -44.945656670070434 -17.906172743261475
3041200000.0 0.005370124 -0.002385886 -44.61794821618628 -23.955042212021464
3041600000.0 0.005066993 -0.003018693 -44.58583953017331 -30.784637853076397
3042000000.0 0.004678661 -0.003442341 -44.71860323904395 -36.3439046204608
3042400000.0 0.004285813 -0.003884334 -44.75522821123665 -42.18676251863539
3042800000.0 0.00389173 -0.004309391 -44.72158632663724 -47.915400993505834
3043200000.0 0.003342206 -0.004754823 -44.71357290937412 -54.89628641498578
3043600000.0 0.002930423 -0.0051853 -44.50081084332075 -60.52745027153039
3044000000.0 0.002226799 -0.005501149 -44.5319493776516 -67.96248930328855
3044400000.0 0.001750267 -0.005605685 -44.62342833919158 -72.66003298942498
3044800000.0 0.00110872 -0.005774831 -44.61200970076728 -79.13192968037725
3045200000.0 0.0005396432 -0.005891798 -44.55876140531795 -84.76675060611751
3045600000.0 -7.433826e-05 -0.005871096 -44.62492016272719 -90.72542519515947
3046000000.0 -0.0006462957 -0.005749254 -44.753232716668656 -96.41391158756183
3046400000.0 -0.001149783 -0.005735023 -44.65815319598938 -101.33662000574066
3046800000.0 -0.001775368 -0.005574995 -44.65561373206576 -107.66417738874647
3047200000.0 -0.002502501 -0.005291093 -44.65235758854191 -115.31250340724888
3047600000.0 -0.003047148 -0.0049425 -44.721972252631154 -121.65464487717983
3048000000.0 -0.003519331 -0.004581917 -44.76518168281744 -127.52755610020897
3048400000.0 -0.003898176 -0.004272167 -44.75640401678063 -132.37916037139001
3048800000.0 -0.004345963 -0.00377763 -44.79413207658396 -139.00193743446414
3049200000.0 -0.004845791 -0.003301169 -44.637016162964585 -145.73556315899268
3049600000.0 -0.005096267 -0.002821823 -44.69356979234999 -151.0265292178552
3050000000.0 -0.005320802 -0.002220558 -44.78315314202941 -157.3475046502239
3050400000.0 -0.005546133 -0.001686601 -44.736062558438505 -163.08527585774723
3050800000.0 -0.005677127 -0.001175811 -44.73501736833935 -168.2986982328266
3051200000.0 -0.005797157 -0.0006089812 -44.68803627401411 -174.00317266845767
3051600000.0 -0.005758676 0.0001376663 -44.791065860934026 178.63055398474611
3052000000.0 -0.005839905 0.0007847412 -44.59416416390554 172.34668583202406
3052400000.0 -0.00574533 0.001427844 -44.55342270363485 166.04345691193112
3052800000.0 -0.005542887 0.002009198 -44.58914323834903 160.0753196103002
3053200000.0 -0.00534511 0.002525578 -44.56568413219347 154.7091470895579
3053600000.0 -0.004999996 0.003054771 -44.64306134954478 148.57696022868691
3054000000.0 -0.004614457 0.003520297 -44.72554367054542 142.66055697701668
3054400000.0 -0.004321103 0.003949986 -44.65031146021781 137.569091630474
3054800000.0 -0.003866903 0.004453858 -44.58548194059793 130.9649809940171
3055200000.0 -0.003301744 0.004820818 -44.6671359074717 124.40696640166036
3055600000.0 -0.002715762 0.005131024 -44.72334396573902 117.8914926723195
3056000000.0 -0.002216698 0.005285779 -44.83422194763185 112.75172303431039
3056400000.0 -0.001690617 0.005576014 -44.691587123069915 106.86701703372704
3056800000.0 -0.001066249 0.005700547 -44.73232804068654 100.59437370257723
3057200000.0 -0.0004467544 0.00581391 -44.685065345659545 94.39410617319564
3057600000.0 0.0001199125 0.005889697 -44.596341090852334 88.8336359094242
3058000000.0 0.0007613649 0.005811024 -44.641026368758375 82.53558097434104
3058400000.0 0.001428434 0.005652857 -44.68582195622911 75.81865992942161
3058800000.0 0.001928559 0.005411962 -44.8137194113301 70.3864150110298
3059200000.0 0.002483557 0.005201587 -44.7854072662946 64.47732575352616
3059600000.0 0.002984931 0.004878395 -44.8533869682423 58.53889413774291
3060000000.0 0.003555459 0.004509124 -44.81835110591951 51.74410539511856
3060400000.0 0.00409202 0.00413049 -44.71011668620265 45.26806322587309
3060800000.0 0.004373963 0.003750675 -44.78873489600239 40.613101793777965
3061200000.0 0.004793667 0.003235274 -44.7565268310824 34.015644741029504
3061600000.0 0.005067705 0.002736873 -44.792269321471395 28.371779950550902
3062000000.0 0.00534207 0.00213908 -44.79996550863916 21.822228507625308
3062400000.0 0.005500839 0.001686181 -44.80140044524699 17.04195737034768
3062800000.0 0.005573579 0.0009472495 -44.953651766275826 9.645458288816686
3063200000.0 0.005767035 0.0004644415 -44.75287216791003 4.604312492806487
3063600000.0 0.00568578 -0.0001524819 -44.901076597523364 -1.5361965721110926
3064000000.0 0.005718958 -0.0007915436 -44.771253126586 -7.880071089552728
3064400000.0 0.005550194 -0.001394355 -44.848035573687994 -14.102356014650706
3064800000.0 0.005463734 -0.001906756 -44.751093927201126 -19.238172472516293
3065200000.0 0.005155317 -0.002559352 -44.79810340608765 -26.40205451832557
3065600000.0 0.004827123 -0.003133857 -44.79881137453481 -32.99237425832582
3066000000.0 0.00458261 -0.003623625 -44.66851336442602 -38.33461660680839
3066400000.0 0.004118334 -0.004025393 -44.79327020727722 -44.34613526858612
3066800000.0 0.003734051 -0.004445426 -44.723063231941474 -49.97054809526914
3067200000.0 0.003183061 -0.004733309 -44.87634620330566 -56.0799125698135
3067600000.0 0.002785397 -0.005173381 -44.619001844009446 -61.70155979586463
3068000000.0 0.002163708 -0.005430844 -44.66282595746733 -68.2771187307472
3068400000.0 0.001577208 -0.00554219 -44.788167223093645 -74.11459633120243
3068800000.0 0.0009828248 -0.005635848 -44.85070882924204 -80.10777576845177
3069200000.0 0.0002981568 -0.005672125 -44.91310066114831 -86.99100105640713
3069600000.0 -0.0001466374 -0.005769299 -44.77473434692673 -91.45596468953859
3070000000.0 -0.0007631994 -0.005712576 -44.78652695887186 -97.60964741257733
3070400000.0 -0.001416022 -0.005533685 -44.86425679188335 -104.35349287069782
3070800000.0 -0.001968061 -0.005392634 -44.82094952314821 -110.04973433201488
3071200000.0 -0.002568518 -0.00509078 -44.879386050955716 -116.77291358779588
3071600000.0 -0.003089591 -0.004826135 -44.83634522208764 -122.62652434194275
3072000000.0 -0.003522428 -0.004538959 -44.81359109148619 -127.81300560618291
3072400000.0 -0.003861017 -0.004190914 -44.88501495122338 -132.65383731558978
3072800000.0 -0.004497234 -0.003700518 -44.69557637178016 -140.55097929084485
3073200000.0 -0.004781456 -0.003240915 -44.766977872080744 -145.8702181998656
3073600000.0 -0.005127261 -0.002694356 -44.74328710271857 -152.27824600479013
3074000000.0 -0.005381996 -0.002127765 -44.75042516462591 -158.42870073087172
3074400000.0 -0.005550082 -0.001522552 -44.798890224172766 -164.6594631935127
3074800000.0 -0.00563932 -0.0009369125 -44.85721472556439 -170.56708129528846
3075200000.0 -0.005816328 -0.0002821449 -44.696814680780825 -177.22280967892235
3075600000.0 -0.005754418 0.0002332323 -44.79284331446565 177.67901530477974
3076000000.0 -0.005739885 0.0008045506 -44.73743692657301 172.02092568076617
3076400000.0 -0.005714596 0.00144683 -44.59046134748486 165.7923214714868
3076800000.0 -0.005352314 0.002023308 -44.84907524057172 159.29215923941442
3077200000.0 -0.005112603 0.002711497 -44.7507285192929 152.06051185026953
3077600000.0 -0.00480429 0.003230662 -44.74716987983477 146.08099973751774
3078000000.0 -0.004489082 0.003579485 -44.8195258405906 141.43199215073577
3078400000.0 -0.004066159 0.004006881 -44.86932372502096 135.42069879263533
3078800000.0 -0.003496851 0.00447685 -44.911989776748904 127.99326367246904
3079200000.0 -0.003180858 0.004865145 -44.71244025006963 123.17687530216264
3079600000.0 -0.002680504 0.005140289 -44.735615610090356 117.5406676342184
3080000000.0 -0.002019847 0.005404282 -44.77737793077879 110.49319792957246
3080400000.0 -0.001401259 0.005635224 -44.721217547965 103.9640008450153
3080800000.0 -0.0009518583 0.00558508 -44.935064294720995 99.67192015172832
3081200000.0 -0.0002249594 0.005675452 -44.913172998224766 92.2698598095625
3081600000.0 0.0003483857 0.005612224 -45.00059687287927 86.44785209822328
3082000000.0 0.0009346014 0.005738211 -44.71076293794199 80.74927636146445
3082400000.0 0.001563326 0.005602573 -44.706618993398635 74.40892291246826
3082800000.0 0.002132107 0.005433526 -44.67639529541866 68.57503620470163
3083200000.0 0.002675983 0.005060526 -44.84526097691025 62.13031880589059
3083600000.0 0.003116023 0.004830929 -44.80861725960534 57.17736584336553
3084000000.0 0.003770584 0.004459093 -44.672352530356335 49.782327056677644
3084400000.0 0.004165075 0.004047051 -44.72029092121023 44.176606453479906
3084800000.0 0.004482412 0.003564266 -44.84178997033919 38.490561064155756
3085200000.0 0.00488729 0.002995265 -44.83369237691997 31.50281106744969
3085600000.0 0.005182306 0.002689678 -44.67364549649438 27.429845508282295
3086000000.0 0.00542891 0.002065673 -44.71854037055838 20.83156869789978
3086400000.0 0.005686149 0.001444924 -44.631879250516846 14.257819653247605
3086800000.0 0.005766934 0.000897209 -44.67723330567162 8.843079284919428
3087200000.0 0.00574513 0.0002304036 -44.807023458326334 2.2965682859348227
3087600000.0 0.005793223 -0.000489555 -44.710692068926434 -4.830290915038301
3088000000.0 0.005792191 -0.0009834226 -44.619720331989924 -9.636028569237597
3088400000.0 0.005588131 -0.001541578 -44.73613278487655 -15.422395905334895
3088800000.0 0.005429696 -0.002134241 -44.68054042273807 -21.458212970217843
3089200000.0 0.005177847 -0.002713779 -44.662953397902015 -27.659635922869032
3089600000.0 0.004828829 -0.00324936 -44.701087742298135 -33.93694461959165
3090000000.0 0.004427668 -0.003762776 -44.7156248100582 -40.35896329021168
3090400000.0 0.004094129 -0.0041592 -44.677446851949306 -45.451722743674544
3090800000.0 0.003573937 -0.004532157 -44.773800920555814 -51.74163898803178
3091200000.0 0.003122969 -0.004898807 -44.71710197363581 -57.482659554182895
3091600000.0 0.00248094 -0.005222478 -44.75872200982444 -64.58992818023765
3092000000.0 0.001928191 -0.005441918 -44.77133518701849 -70.48964639102044
3092400000.0 0.001396334 -0.005596083 -44.78000806121052 -75.9896497387864
3092800000.0 0.0006871851 -0.005749445 -44.74587932961655 -83.1842273563208
3093200000.0 0.0002484488 -0.005814632 -44.701633635386244 -87.55334229987547
3093600000.0 -0.0003828053 -0.005772044 -44.75434713408297 -93.7943327585652
3094000000.0 -0.001045438 -0.005756402 -44.65604461466084 -100.29347162977444
3094400000.0 -0.001754056 -0.005525872 -44.73505983505482 -107.61079682091349
3094800000.0 -0.002306377 -0.00537655 -44.656354188040304 -113.21786571896638
3095200000.0 -0.002673836 -0.005073755 -44.82904585458989 -117.78893991139988
3095600000.0 -0.003265138 -0.004781384 -44.74660243654864 -124.32860392388855
3096000000.0 -0.00379211 -0.004425843 -44.689276641151025 -130.59032461135217
3096400000.0 -0.004258959 -0.003935512 -44.73312050910306 -137.26036954528934
3096800000.0 -0.004629931 -0.003524153 -44.703654387927116 -142.7227882587575
3097200000.0 -0.004984647 -0.002960078 -44.735474139259026 -149.29650562413954
3097600000.0 -0.005310489 -0.002431967 -44.670449888157826 -155.3943336219675
3098000000.0 -0.005621481 -0.001911635 -44.52774390423932 -161.21893856259152
3098400000.0 -0.00572659 -0.001262034 -44.63611232492629 -167.5717386201123
3098800000.0 -0.005817384 -0.0006822871 -44.646112787617234 -173.3106717564195
3099200000.0 -0.005854319 -4.415284e-05 -44.65022531127463 -179.567887670258
3099600000.0 -0.005897486 0.0006295485 -44.537452453754625 173.90682905292982
3100000000.0 -0.00572309 0.001231004 -44.65096921035035 167.8609560137313
3100400000.0 -0.005560263 0.001758267 -44.68418557207833 162.4519979557092
3100800000.0 -0.005337411 0.002364961 -44.67487712577508 156.1022790516187
3101200000.0 -0.005104672 0.002963696 -44.57907266800359 149.8611923217121
3101600000.0 -0.004694978 0.003341031 -44.787925058423056 144.56365945914476
3102000000.0 -0.004384003 0.003863357 -44.666727606708314 138.61222078186728
3102400000.0 -0.003904599 0.004447271 -44.556328583302246 131.2823692290519
3102800000.0 -0.003420903 0.004613462 -44.81662327840061 126.5571025116939
3103200000.0 -0.002904971 0.004991167 -44.7689628939813 120.20036389273749
3103600000.0 -0.00243503 0.005274709 -44.71701438057103 114.7800558827885
3104000000.0 -0.001785189 0.005521278 -44.72738690330367 107.9175216657998
3104400000.0 -0.001245583 0.005721407 -44.648834949867584 102.28197406719778
