## frequency[GHz]  I  Q  LogM[dB] Phase[deg]
3000000000.0 -0.003625142 -0.005785359 -43.31501952149813 -122.07151451420843
3000400000.0 -0.004126268 -0.00535513 -43.400504933415434 -127.61519367744958
3000800000.0 -0.004787876 -0.004820611 -43.35714941118938 -134.8048006844479
3001200000.0 -0.005188268 -0.004313393 -43.417645078299536 -140.26073321307484
3001600000.0 -0.005540716 -0.003753677 -43.48822575472988 -145.88348046172385
3002000000.0 -0.006001178 -0.003122622 -43.39467429672147 -152.5104689228713
3002400000.0 -0.006244161 -0.002446166 -43.47045488471012 -158.60711096018963
3002800000.0 -0.006402629 -0.001796124 -43.54384016275187 -164.3296440675937
3003200000.0 -0.006559519 -0.001022806 -43.55823231877838 -171.13740823957068
3003600000.0 -0.006799809 -0.0003846101 -43.336193740125076 -176.76269136691874
3004000000.0 -0.006594488 0.0002361461 -43.61081283835549 177.9491363170944
3004400000.0 -0.006592142 0.001047747 -43.51112227989365 170.96901864758792
3004800000.0 -0.006368457 0.001745151 -43.60485655282906 164.6754081298871
3005200000.0 -0.006220541 0.002382623 -43.528907735754494 159.04190872610513
3005600000.0 -0.005850738 0.003030586 -43.62354326248229 152.61658679383322
3006000000.0 -0.005514122 0.003533505 -43.67631812965531 147.34784155498107
3006400000.0 -0.00514265 0.004109161 -43.631907328664695 141.37389642590642
3006800000.0 -0.004662758 0.004555001 -43.7171995073361 135.66976583891287
3007200000.0 -0.004151361 0.005102863 -43.63782905481827 129.12958363756127
3007600000.0 -0.003505714 0.005539586 -43.66763462004572 122.32757817331112
3008000000.0 -0.002909513 0.005876054 -43.665994561354296 116.34219401576388
3008400000.0 -0.002164557 0.006088731 -43.79260807216491 109.57040961378019
3008800000.0 -0.001640904 0.006251961 -43.79035906462201 104.70628253112689
3009200000.0 -0.0009246464 0.006410738 -43.772418157348426 98.20739788303425
3009600000.0 -0.0001862189 0.006512709 -43.721217325261534 91.63782087654415
3010000000.0 0.0004041421 0.006438637 -43.80704422366683 86.40835500069524
3010400000.0 0.001107751 0.006338773 -43.82924603506251 80.08721116979157
3010800000.0 0.001735989 0.006180655 -43.84953610069216 74.31129629783558
3011200000.0 0.002449211 0.006100545 -43.64362630393678 68.12581594110797
3011600000.0 0.003048138 0.005717074 -43.7699811709023 61.935067450693644
3012000000.0 0.003638289 0.005414797 -43.71027225123261 56.102213072618106
3012400000.0 0.00419483 0.004934114 -43.773500388875995 49.62984758113743
3012800000.0 0.004571077 0.004351716 -43.99765955956157 43.59170460143314
3013200000.0 0.005082489 0.003896514 -43.870624113137325 37.47574717073446
3013600000.0 0.005450937 0.003388201 -43.851805824120085 31.864315047484414
3014000000.0 0.005852966 0.002769423 -43.77507094579776 25.3219088855462
3014400000.0 0.006001346 0.002161971 -43.905094025868365 19.811438458363543
3014800000.0 0.006171694 0.001560607 -43.92273750354992 14.190649332202716
3015200000.0 0.006201145 0.00085245 -44.069259213743734 7.827195436626497
3015600000.0 0.006329261 0.0001616294 -43.970108653728005 1.4628358972368525
3016000000.0 0.006268159 -0.000503587 -44.029258041565164 -4.593305626892181
3016400000.0 0.006235854 -0.001100939 -43.96877918944301 -10.012383163996367
3016800000.0 0.006175901 -0.001839336 -43.8169129928911 -16.584832553674058
3017200000.0 0.005969011 -0.00246926 -43.79589735947289 -22.473897350766265
3017600000.0 0.005523867 -0.003153897 -43.929722654561985 -29.724559555620143
3018000000.0 0.005162811 -0.003597633 -44.02331348255467 -34.87017549311749
3018400000.0 0.004874665 -0.004038053 -43.9719983227043 -39.637517723988395
3018800000.0 0.004285347 -0.004527533 -44.10466426731159 -46.57414422130309
3019200000.0 0.00369068 -0.004920886 -44.22092052660581 -53.12998685193272
3019600000.0 0.003251861 -0.005247452 -44.18957034727565 -58.21338655869656
3020000000.0 0.002584813 -0.005725785 -44.03778295775268 -65.70397377637269
3020400000.0 0.002047987 -0.005788735 -44.236159867492646 -70.51681390217522
3020800000.0 0.001430427 -0.006094985 -44.06769735067791 -76.79232691918212
3021200000.0 0.0007630491 -0.006137114 -44.174092989254206 -82.91258469109297
3021600000.0 0.0001586115 -0.006120685 -44.26108395143622 -88.51556874814611
3022000000.0 -0.0005266631 -0.006054831 -44.32522479056058 -94.97120637728038
3022400000.0 -0.001237691 -0.006010526 -44.241392682804644 -101.63573516790693
3022800000.0 -0.001864159 -0.005959471 -44.09042494543996 -107.3700021773066
3023200000.0 -0.002467008 -0.005642667 -44.21065027992831 -113.61523860633528
3023600000.0 -0.002974753 -0.005303255 -44.321074509683676 -119.28935939374811
3024000000.0 -0.003657899 -0.005049005 -44.103555549247076 -125.92254729990974
3024400000.0 -0.0040641 -0.004561924 -44.279645875542855 -131.6970170465391
3024800000.0 -0.004551068 -0.004180362 -44.180771075499536 -137.4311184998933
3025200000.0 -0.004971474 -0.003797358 -44.07429318364274 -142.6263450354462
3025600000.0 -0.005298531 -0.003124574 -44.220787891270035 -149.47190430232018
3026000000.0 -0.005583938 -0.002455693 -44.293310898157294 -156.2611636707354
3026400000.0 -0.005733234 -0.001880014 -44.388458272596225 -161.84490155973955
3026800000.0 -0.006011311 -0.00132673 -44.21405798202433 -167.55402567242587
3027200000.0 -0.006067639 -0.0006517169 -44.28978922921375 -173.86944101310445
3027600000.0 -0.006066946 -4.576725e-05 -44.34035027215173 -179.56778574848835
3028000000.0 -0.006014334 0.0005987729 -44.37341501114921 174.3145023694508
3028400000.0 -0.005860302 0.001201398 -44.462808147303775 168.41453515651165
3028800000.0 -0.005892914 0.001834288 -44.191770798063416 162.7101958811601
3029200000.0 -0.005537771 0.002428021 -44.36967755755436 156.32507939598662
3029600000.0 -0.005216944 0.002897801 -44.48382229213593 150.94960252440555
3030000000.0 -0.004881333 0.003495192 -44.43169682137735 144.39611378442322
3030400000.0 -0.004413398 0.00399733 -44.50301331550696 137.8320405835502
3030800000.0 -0.004002763 0.004512994 -44.390271760658024 131.5711591852271
3031200000.0 -0.003582971 0.004861365 -44.380576770663296 126.39132205886925
3031600000.0 -0.002993382 0.005172287 -44.471750208263785 120.0594561564055
3032000000.0 -0.002423007 0.005521825 -44.39358039149547 113.6921287044913
3032400000.0 -0.001820637 0.005750974 -44.39036788901403 107.56668810140216
3032800000.0 -0.001202517 0.005810767 -44.53320897403871 101.69210505519386
3033200000.0 -0.0005353858 0.005848214 -44.623289056689345 95.23067044399096
3033600000.0 3.781785e-05 0.006030574 -44.39265619456849 89.64070173216497
3034000000.0 0.0006365408 0.005893453 -44.54223301968771 83.83548747649408
3034400000.0 0.001210794 0.005709768 -44.67660083121846 78.02741009643226
3034800000.0 0.001845376 0.00565557 -44.51108581899842 71.92882957671364
3035200000.0 0.002405752 0.005395515 -44.571842197028495 65.96886559989015
3035600000.0 0.003087997 0.005095223 -44.49808069364842 58.78173654848734
3036000000.0 0.003489733 0.004750873 -44.59057305579111 53.70101963759474
3036400000.0 0.004069972 0.004441623 -44.40180877308026 47.50017963519421
3036800000.0 0.004408454 0.00390929 -44.594576232408556 41.565687663729975
3037200000.0 0.004688404 0.003408386 -44.736836375194365 36.01648247137467
3037600000.0 0.00516657 0.002944108 -44.514727907181175 29.67613464832551
3038000000.0 0.00544597 0.00244783 -44.47934850478023 24.202748670947894
3038400000.0 0.005581156 0.001841439 -44.61675153462402 18.259719285415844
3038800000.0 0.005876001 0.001204706 -44.439544809618795 11.586303354190843
3039200000.0 0.005854553 0.0005361194 -44.61385869123875 5.232158094315161
3039600000.0 0.005902651 -6.23493e-05 -44.578573342762496 -0.6051889044675518
3040000000.0 0.005871894 -0.0006348084 -44.57397117595668 -6.170262368401128
3040400000.0 0.005748196 -0.001230828 -44.61467802364413 -12.085910213900078
3040800000.0 0.005643807 -0.001949548 -44.479003291407935 -19.056518360764056
3041200000.0 0.005346622 -0.002469672 -44.59850205113441 -24.792809528064065
3041600000.0 0.005012994 -0.003068194 -44.61628339731134 -31.468641743669053
3042000000.0 0.004690782 -0.003633689 -44.533693573688 -37.76296067269753
3042400000.0 0.00440524 -0.003988589 -44.52041014848528 -42.15829732314756
3042800000.0 0.00397123 -0.00429426 -44.65829957298748 -47.23808161467644
3043200000.0 0.003429184 -0.004763542 -44.62802765016122 -54.25059845835185
3043600000.0 0.002903783 -0.005121918 -44.60096270953602 -60.44967966901555
3044000000.0 0.00235239 -0.005458474 -44.518726243795754 -66.68583710219777
3044400000.0 0.001682473 -0.005552758 -44.72836387257912 -73.14331123564627
3044800000.0 0.001216916 -0.00559426 -44.844357080380924 -77.72767145159443
3045200000.0 0.0005446257 -0.005687338 -44.86217509497757 -84.52997325771945
3045600000.0 -3.642912e-05 -0.005805169 -44.72353163271238 -90.35954292288429
3046000000.0 -0.0007072682 -0.005830214 -44.62286362006065 -96.91680173336216
3046400000.0 -0.001239933 -0.005590086 -44.84305004171425 -102.50625977720873
3046800000.0 -0.001790726 -0.005496372 -44.76035078599797 -108.04568492458301
3047200000.0 -0.002370993 -0.00535285 -44.65027466444891 -113.89048326692583
3047600000.0 -0.002988074 -0.005104866 -44.56077864544931 -120.3420765171194
3048000000.0 -0.003473063 -0.004809028 -44.535941002764744 -125.83668288871881
3048400000.0 -0.003906691 -0.00421954 -44.806084568019074 -132.7952781060739
3048800000.0 -0.004526956 -0.003931758 -44.44276321647823 -139.02498736898337
3049200000.0 -0.004774001 -0.003349025 -44.684309889892674 -144.9498309903389
3049600000.0 -0.005091034 -0.002864233 -44.66959693805116 -150.63774655820626
3050000000.0 -0.005326907 -0.002261175 -44.75099758427795 -156.999661603399
3050400000.0 -0.005633139 -0.001822602 -44.55260769358887 -162.07101353491225
3050800000.0 -0.005681922 -0.001145678 -44.737018830911104 -168.5999848954658
3051200000.0 -0.005709216 -0.00059454 -44.82162702582922 -174.054824701007
3051600000.0 -0.005749501 3.284527e-05 -44.8072551928167 179.67268900789804
3052000000.0 -0.005711064 0.0007372036 -44.79389130088129 172.64473802175985
3052400000.0 -0.0056785 0.001275823 -44.701452278482414 167.33728384871188
3052800000.0 -0.005437777 0.001998535 -44.74131969935692 159.82020937779842
3053200000.0 -0.00522103 0.002439796 -44.7870812502443 154.95323757626448
3053600000.0 -0.004986311 0.003049533 -44.66444648560327 148.55083694010355
3054000000.0 -0.004548648 0.003491718 -44.830379022690224 142.48876245675118
3054400000.0 -0.004223096 0.00394175 -44.76618638470809 136.97352930140082
3054800000.0 -0.003836929 0.004458537 -44.60916667234202 130.71463761785566
3055200000.0 -0.003316699 0.004745116 -44.747398089629215 124.95243662460136
3055600000.0 -0.002796056 0.004947607 -44.90841256468922 119.47222443783126
3056000000.0 -0.002220643 0.005438731 -44.620418242650075 112.21027620596098
3056400000.0 -0.001686068 0.005461674 -44.858148661323476 107.15592868008689
3056800000.0 -0.001048633 0.005724758 -44.70152936679472 100.38008512640384
3057200000.0 -0.0003228142 0.005686639 -44.888914145318566 93.24903019810083
3057600000.0 0.0001846831 0.005869481 -44.623708394275205 88.19778406706226
3058000000.0 0.0007087784 0.005759558 -44.72694005422882 82.98438292612654
3058400000.0 0.001325247 0.005671977 -44.694468262123586 76.84887192081575
3058800000.0 0.002006619 0.005335663 -44.88172506772433 69.38988484043637
3059200000.0 0.002484173 0.005087635 -44.941022490190406 63.974826759383824
3059600000.0 0.003037973 0.004879295 -44.810020304651026 58.09255821802331
3060000000.0 0.003585899 0.004638343 -44.63783857965965 52.29242117850503
3060400000.0 0.004045868 0.004126799 -44.76259802419838 45.567361079175505
3060800000.0 0.004468726 0.003645839 -44.780561574421014 39.20950803702781
3061200000.0 0.004793948 0.003371419 -44.64093443965082 35.117403798606475
3061600000.0 0.005205906 0.002811651 -44.558471074297515 28.372980874163368
3062000000.0 0.005434745 0.002129979 -44.6758626493222 21.401148975139634
3062400000.0 0.005598222 0.001635171 -44.68343904467837 16.282426915689992
3062800000.0 0.005544987 0.0009339821 -45.000490757781506 9.560996292805656
3063200000.0 0.005774412 0.0004291558 -44.74592240175554 4.250422973560635
3063600000.0 0.005712808 -0.0001611174 -44.859554429664065 -1.6154753766360672
3064000000.0 0.005752791 -0.0007794762 -44.72341910387571 -7.716317157973788
3064400000.0 0.005609083 -0.001366495 -44.7717614407403 -13.691784418885174
3064800000.0 0.005441461 -0.001996289 -44.73729651828656 -20.14638849709849
3065200000.0 0.005071123 -0.002542661 -44.9239488514059 -26.629185855678685
3065600000.0 0.004816725 -0.003011795 -44.911774989808436 -32.01685994510349
3066000000.0 0.004514508 -0.00349168 -44.87147417874695 -37.71963324223694
3066400000.0 0.004090058 -0.003978741 -44.87329550669203 -44.20959864101748
3066800000.0 0.003632454 -0.004302495 -44.98856006739979 -49.82670563925733
3067200000.0 0.003237834 -0.004783357 -44.767209346309755 -55.90609597090119
3067600000.0 0.002637676 -0.005191401 -44.696980941787814 -63.06553294327995
3068000000.0 0.002113148 -0.005247383 -44.948442833498234 -68.06510152270145
3068400000.0 0.001596091 -0.005612448 -44.679201411453526 -74.12509060338131
3068800000.0 0.0009394755 -0.00563524 -44.862692223230425 -80.53501834859115
3069200000.0 0.0004629897 -0.005818648 -44.676148134441426 -85.45056127284323
3069600000.0 -0.0002310908 -0.005792449 -44.73584877951293 -92.28461391227302
3070000000.0 -0.0007484326 -0.005686951 -44.827834698146134 -97.49733893711827
3070400000.0 -0.001381515 -0.005656691 -44.69714005364235 -103.72449554491234
3070800000.0 -0.001976074 -0.005453539 -44.730671263448876 -109.91783685379653
3071200000.0 -0.002596948 -0.005225846 -44.67836901600891 -116.42476096314603
3071600000.0 -0.003098633 -0.004936424 -44.68906902976265 -122.11682235485432
3072000000.0 -0.003567133 -0.00452708 -44.786148682267665 -128.2365011516097
3072400000.0 -0.004056383 -0.004242363 -44.62786987595243 -133.71618125291616
3072800000.0 -0.004507372 -0.003728658 -44.657289697906506 -140.40124074917324
3073200000.0 -0.004648488 -0.003205458 -44.964353494382735 -145.4110174478997
3073600000.0 -0.005141136 -0.002729117 -44.70064815529794 -152.03888100710617
3074000000.0 -0.005346254 -0.002199827 -44.75971844647706 -157.63426852671455
3074400000.0 -0.005634907 -0.001518084 -44.677967230477364 -164.92209163323918
3074800000.0 -0.005771134 -0.0009794561 -44.65145183946562 -170.36774796705208
3075200000.0 -0.005824753 -0.0003981348 -44.67420662562729 -176.08978822766935
3075600000.0 -0.005629363 0.0003117279 -44.977517960777135 176.83046370208896
3076000000.0 -0.005736655 0.0008736913 -44.727240312351206 171.34040986085245
3076400000.0 -0.00567109 0.00141891 -44.662969745602375 165.9529407467594
3076800000.0 -0.00530975 0.002042774 -44.89905996398163 158.95720195463048
3077200000.0 -0.005080126 0.002670773 -44.82267062880418 152.26776298284838
3077600000.0 -0.004917333 0.003131841 -44.686668274872844 147.5070090447875
3078000000.0 -0.004473529 0.003714229 -44.70981049822512 140.29822840582614
3078400000.0 -0.004111223 0.003938761 -44.89240673172611 136.2273109303235
3078800000.0 -0.003705036 0.004416311 -44.78455353116091 129.9947545811826
3079200000.0 -0.003029665 0.004871751 -44.826348022060394 121.87682811956606
3079600000.0 -0.002656098 0.005255183 -44.60023549199467 116.8131499726959
3080000000.0 -0.002128669 0.00536547 -44.77301523915081 111.63995344979845
3080400000.0 -0.001506163 0.005664537 -44.640036454896034 104.89004568726524
3080800000.0 -0.0008710048 0.005729179 -44.73891614392626 98.6444603104367
3081200000.0 -0.0002699094 0.005724608 -44.83544117361454 92.69943815858369
3081600000.0 0.0002999313 0.005821762 -44.68739925819033 87.05078672040162
3082000000.0 0.001010587 0.005648992 -44.82376661757474 79.85725903738536
3082400000.0 0.001535698 0.00551815 -44.84015640158546 74.44814527149154
3082800000.0 0.002085808 0.005328554 -44.84867170906103 68.62264878436991
3083200000.0 0.002680465 0.00512679 -44.7535897215215 62.39785882577627
3083600000.0 0.003143512 0.00483245 -44.78414239111132 56.95597064664049
3084000000.0 0.003582888 0.004416429 -44.90234046615961 50.948838628381864
3084400000.0 0.004027867 0.004118352 -44.790642535335095 45.636392835672424
3084800000.0 0.004594827 0.003606591 -44.6699182011287 38.12922715507639
3085200000.0 0.004763947 0.00315256 -44.86332012096237 33.4947498633743
3085600000.0 0.005079646 0.002548004 -44.908629915718194 26.638825568286375
3086000000.0 0.005399155 0.001930762 -44.830851430190116 19.67727754333001
3086400000.0 0.005651768 0.00129334 -44.73464172820392 12.889522679947037
3086800000.0 0.005704093 0.0008739806 -44.775489972671366 8.711107301884915
3087200000.0 0.00585312 0.0001647444 -44.64881222789664 1.6122456687431184
3087600000.0 0.005831111 -0.0003648107 -44.668008263977484 -3.579919207943935
3088000000.0 0.005741495 -0.001119793 -44.65736478526685 -11.036145907399758
3088400000.0 0.005513669 -0.001640829 -44.802656238472345 -16.572633914433677
3088800000.0 0.005315517 -0.002096495 -44.86116651281578 -21.524790099965177
3089200000.0 0.005134291 -0.002672351 -44.74924029370071 -27.49656052515089
3089600000.0 0.004780474 -0.003209149 -44.79495912857969 -33.873600782215455
3090000000.0 0.00447334 -0.003749647 -44.67619920200595 -39.97044142795962
3090400000.0 0.004117693 -0.004097479 -44.717940450108735 -44.85902004854797
3090800000.0 0.003573494 -0.004627126 -44.66225979951537 -52.321365642513086
3091200000.0 0.003030691 -0.004898049 -44.791763449162346 -58.25265345061021
3091600000.0 0.002475355 -0.005207002 -44.78335689749461 -64.57406792896735
3092000000.0 0.001870412 -0.005341087 -44.945020280852034 -70.70009619066887
3092400000.0 0.001294372 -0.005674302 -44.701450293211096 -77.15005929582149
3092800000.0 0.0008319594 -0.005779709 -44.672813776775754 -81.80883182618133
3093200000.0 0.0001398591 -0.005835033 -44.67663933633375 -88.62694827699413
3093600000.0 -0.0005448226 -0.005809566 -44.67909812453213 -95.35754360541462
3094000000.0 -0.001012142 -0.005821416 -44.57008904832209 -99.86314944433026
3094400000.0 -0.001703991 -0.00558342 -44.675238085254 -106.97154349041648
3094800000.0 -0.002270014 -0.00530703 -44.77327189768726 -113.15819604778092
3095200000.0 -0.002791707 -0.005155436 -44.63793322792168 -118.4358750802842
3095600000.0 -0.003471206 -0.004756668 -44.59981506808318 -126.12031504178358
3096000000.0 -0.003788778 -0.004338714 -44.79133069920551 -131.12905718093793
3096400000.0 -0.004144723 -0.004004844 -44.78633001266954 -135.98332702267177
3096800000.0 -0.004686789 -0.003468184 -44.685940072719006 -143.4988737468008
3097200000.0 -0.004884914 -0.003019566 -44.817471941359514 -148.2780859720809
3097600000.0 -0.00526038 -0.002459466 -44.721050831788205 -154.9417807351375
3098000000.0 -0.00548146 -0.001785974 -44.78389853363269 -161.95331010317864
3098400000.0 -0.005559948 -0.001232126 -44.890375674904334 -167.50476192018607
3098800000.0 -0.005783504 -0.0007547883 -44.682832582288505 -172.56451823980277
3099200000.0 -0.00575878 -0.0001015647 -44.792039600556315 -178.98960796890216
3099600000.0 -0.005736675 0.0005965231 -44.78008818435314 174.06348403907526
3100000000.0 -0.005683722 0.00120435 -44.71659897351611 168.036292980913
3100400000.0 -0.005558657 0.001845446 -44.646509498315645 161.63409470025832
3100800000.0 -0.005379723 0.002382238 -44.607171277913935 156.11537669550304
3101200000.0 -0.005105483 0.002869406 -44.64712876128914 150.66295103273353
3101600000.0 -0.004711679 0.003479884 -44.64585463469189 143.55170038007802
3102000000.0 -0.004437587 0.003900933 -44.570569106935565 138.68238747786944
3102400000.0 -0.003952339 0.004341605 -44.625521959626525 132.31286537357062
3102800000.0 -0.003484817 0.004798042 -44.538874447428334 125.9908969396904
3103200000.0 -0.002913187 0.005142415 -44.567878557188294 119.53162860294813
3103600000.0 -0.002225633 0.005350634 -44.73884048064796 112.58520415632067
3104000000.0 -0.00185651 0.005627187 -44.545461277718175 108.2586504017193
