## frequency[GHz]  I  Q  LogM[dB] Phase[deg]
3000000000.0 -0.003541929 -0.005710858 -43.45254143610869 -121.80758698718624
3000400000.0 -0.004186946 -0.005335999 -43.372100493230946 -128.1198653678205
3000800000.0 -0.004609616 -0.004865037 -43.475878590366634 -133.45577441063162
3001200000.0 -0.005225678 -0.004246962 -43.43476371093563 -140.8988861405414
3001600000.0 -0.005629581 -0.003781976 -43.372844225051 -146.1066295357783
3002000000.0 -0.005997257 -0.0032439 -43.326406524765666 -151.59116500917975
3002400000.0 -0.00621525 -0.002461915 -43.49786166044248 -158.39104747706872
3002800000.0 -0.006431842 -0.001887422 -43.47454366699434 -163.64569042492124
3003200000.0 -0.006595212 -0.001015715 -43.51361951107886 -171.24478274004503
3003600000.0 -0.006660339 -0.0002729097 -43.52278770938314 -177.65359816618582
3004000000.0 -0.00662089 0.0002704464 -43.574432326718295 177.6609144982539
3004400000.0 -0.006560777 0.001038233 -43.55347540119339 171.00759937530853
3004800000.0 -0.006423758 0.001813834 -43.51106860053569 164.23226369524644
3005200000.0 -0.006336159 0.002285902 -43.43209599141914 160.16202980337908
3005600000.0 -0.005911529 0.002962926 -43.59269132995191 153.37944712663452
3006000000.0 -0.00552226 0.003584229 -43.630905208111 147.01436849892707
3006400000.0 -0.005156001 0.004148757 -43.58560287803573 141.17823488118597
3006800000.0 -0.004592516 0.004722737 -43.62555823949023 134.1990955329042
3007200000.0 -0.004049958 0.005068724 -43.7577853642268 128.62518263690887
3007600000.0 -0.00348892 0.005516136 -43.70587147402592 122.31308584594021
3008000000.0 -0.002897429 0.00586917 -43.68127715687575 116.27413872970138
3008400000.0 -0.0023627 0.006079071 -43.71228492094217 111.23918073467685
3008800000.0 -0.001638077 0.00626595 -43.77315394042779 104.6506750256888
3009200000.0 -0.0009920705 0.006470558 -43.68025612932946 98.71674991001275
3009600000.0 -0.0002907898 0.006455142 -43.793079776434666 92.57930373653437
3010000000.0 0.0004586331 0.006464432 -43.767587192756174 85.94182690974031
3010400000.0 0.001109586 0.006384857 -43.76775733938401 80.1413697019112
3010800000.0 0.001750804 0.006193249 -43.82772628138173 74.21463788474503
3011200000.0 0.002436256 0.006023214 -43.74538862725305 67.97776383935307
3011600000.0 0.002982958 0.005672551 -43.86413194648611 62.26198973997634
3012000000.0 0.003709204 0.005247716 -43.84084466870079 54.7464686385079
3012400000.0 0.00411629 0.004861992 -43.916578897952945 49.747872358695545
3012800000.0 0.00448198 0.00444687 -43.99432226365743 44.77470285080232
3013200000.0 0.005092334 0.003932532 -43.83034555962534 37.676952863925074
3013600000.0 0.005393002 0.003307738 -43.976621355608465 31.522409669759487
3014000000.0 0.005773188 0.002797383 -43.855768522866484 25.852385803494784
3014400000.0 0.006055571 0.002126283 -43.85197458548596 19.347623243281177
3014800000.0 0.006206403 0.001506182 -43.89467350697657 13.64094014830734
3015200000.0 0.006307236 0.0007562644 -43.94122431213542 6.837365139196883
3015600000.0 0.00639555 0.0001857524 -43.87878006288679 1.6636313478463713
3016000000.0 0.006284571 -0.0005278935 -44.003952252312345 -4.801478619082393
3016400000.0 0.006116421 -0.001055203 -44.142679581995765 -9.788298716580977
3016800000.0 0.006103832 -0.001855919 -43.90392781743668 -16.91231421242535
3017200000.0 0.005885894 -0.002352102 -43.96031877765549 -21.782478568518755
3017600000.0 0.00555568 -0.003019798 -43.98105503974632 -28.526356392962327
3018000000.0 0.005256046 -0.003623047 -43.89845859872736 -34.57889838949182
3018400000.0 0.004732429 -0.004126697 -44.04222653916558 -41.088558254647715
3018800000.0 0.00433514 -0.004568199 -44.01626693680967 -46.499465355358815
3019200000.0 0.003712972 -0.004922241 -44.200493745928064 -52.9718176245964
3019600000.0 0.003184716 -0.0053345 -44.13420500877972 -59.16264410179218
3020000000.0 0.002663439 -0.005574125 -44.1833727291574 -64.46050744013979
3020400000.0 0.002158676 -0.005838005 -44.118158955131904 -69.70749054546539
3020800000.0 0.001340887 -0.006038532 -44.17234073104524 -77.48031584141883
3021200000.0 0.0007825287 -0.006223917 -44.05060848034413 -82.83384464821695
3021600000.0 5.87988e-05 -0.006243371 -44.09123196422109 -89.46041593817868
3022000000.0 -0.0005580953 -0.006224515 -44.08311600217381 -95.12348819235739
3022400000.0 -0.001166765 -0.006032608 -44.230404812705224 -100.94640406689078
3022800000.0 -0.001829347 -0.00592341 -44.15292363927783 -107.1624364292245
3023200000.0 -0.00245916 -0.005700779 -44.14016749530174 -113.33404493203568
3023600000.0 -0.003035845 -0.00532892 -44.24653444471133 -119.66983432556871
3024000000.0 -0.00349519 -0.005056142 -44.227274126489746 -124.65517771825425
3024400000.0 -0.004051508 -0.004486482 -44.371929758425786 -132.08354702188677
3024800000.0 -0.004449325 -0.004190761 -44.27605097620315 -136.71412712707166
3025200000.0 -0.005037197 -0.003690298 -44.090283536824316 -143.77314352602895
3025600000.0 -0.005275714 -0.003048843 -44.30291404690833 -149.97631853291165
3026000000.0 -0.005574969 -0.002480925 -44.29045513575122 -156.01038872366257
3026400000.0 -0.005819957 -0.001886767 -44.26759413639782 -162.0378675561126
3026800000.0 -0.005941072 -0.001326797 -44.31132944448293 -167.41093006790445
3027200000.0 -0.005988135 -0.0006749605 -44.3993389428967 -173.56897463101518
3027600000.0 -0.005980888 2.218151e-05 -44.46462686949274 179.78750629015332
3028000000.0 -0.005943269 0.0007000325 -44.4596545882646 173.28232439987886
3028400000.0 -0.005883907 0.001223107 -44.422961190484 168.2569764740497
3028800000.0 -0.005717542 0.001884681 -44.4078414126006 161.7561607290191
3029200000.0 -0.005489563 0.002410957 -44.44325078674187 156.28943565679126
3029600000.0 -0.005234519 0.002965129 -44.41385267031049 150.4703193730036
3030000000.0 -0.004912781 0.003428879 -44.449947379228824 145.08685805206824
3030400000.0 -0.00454712 0.003991935 -44.36378380919484 138.7199723283258
3030800000.0 -0.004044383 0.004462782 -44.40411052150493 132.18435035470222
3031200000.0 -0.00356759 0.004917689 -44.328399116339405 125.95940915754896
3031600000.0 -0.002929573 0.005152244 -44.543463756462735 119.62261955052482
3032000000.0 -0.002474427 0.005438414 -44.47342296937477 114.46508673171449
3032400000.0 -0.001857926 0.005825146 -44.27311734974324 107.69004410614906
3032800000.0 -0.001196992 0.005785736 -44.5708086875068 101.68882951513048
3033200000.0 -0.000598915 0.00596361 -44.44623250049052 95.73488688294108
3033600000.0 5.95247e-05 0.005932687 -44.53453410247558 89.42515092226296
3034000000.0 0.0007339988 0.005899599 -44.516840237817796 82.90798657170343
3034400000.0 0.001252803 0.005760456 -44.590155890118375 77.73019307866458
3034800000.0 0.001864746 0.005620575 -44.55087256235336 71.64563218724892
3035200000.0 0.002417846 0.005458933 -44.47990064974155 66.1107051013664
3035600000.0 0.002926155 0.005058961 -44.665397406991936 59.95447071013436
3036000000.0 0.003542331 0.004736885 -44.561033693126134 53.210174297181425
3036400000.0 0.003969125 0.004430077 -44.51247873370309 48.141267101560494
3036800000.0 0.004351162 0.00403256 -44.53529508148571 42.82366711426449
3037200000.0 0.00478127 0.003542192 -44.50902688098233 36.53280541405002
3037600000.0 0.005142543 0.002963203 -44.531327175534315 29.951129398665174
3038000000.0 0.005407156 0.00234145 -44.59423734463794 23.4139630225577
3038400000.0 0.005525069 0.001796889 -44.71659346206445 18.015806119247987
3038800000.0 0.005707335 0.001282012 -44.65755181810337 12.6599491696837
3039200000.0 0.005967161 0.0005317598 -44.450292173257075 5.092425508930808
3039600000.0 0.005940361 -1.37147e-05 -44.52372008770517 -0.13228034981953365
3040000000.0 0.005800349 -0.0006514695 -44.676474842994494 -6.408351483481636
3040400000.0 0.005760028 -0.001213313 -44.60296121872027 -11.895092259418606
3040800000.0 0.005593239 -0.001861875 -44.59033930473269 -18.411546849477173
3041200000.0 0.005267037 -0.002395916 -44.75187411514731 -24.460255115548936
3041600000.0 0.005098694 -0.003014585 -44.54885906253625 -30.593553762753555
3042000000.0 0.004702568 -0.003483443 -44.65358179391966 -36.52932186100752
3042400000.0 0.004291227 -0.003901353 -44.7320618706827 -42.275425482947924
3042800000.0 0.003863216 -0.004360321 -44.69328636391885 -48.45926605627143
3043200000.0 0.00335923 -0.004807463 -44.63490460108312 -55.05595300966696
3043600000.0 0.002909527 -0.005155485 -44.553817064678675 -60.56154520951705
3044000000.0 0.002270942 -0.005342402 -44.72390246001905 -66.97068240015427
3044400000.0 0.001765845 -0.005620449 -44.59574721582747 -72.55820979637437
3044800000.0 0.001186957 -0.005682666 -44.72349998494042 -78.20206532086593
3045200000.0 0.0004900718 -0.00574457 -44.783356551260255 -85.1238781745662
3045600000.0 -0.0001885818 -0.005927224 -44.53857918000295 -91.82231979121902
3046000000.0 -0.0006918134 -0.005706998 -44.80849141641733 -96.91178185296845
3046400000.0 -0.001257736 -0.005672488 -44.71610169687045 -102.50169140498517
3046800000.0 -0.00189099 -0.005520442 -44.67868559852586 -108.9085485391894
3047200000.0 -0.002441186 -0.005344772 -44.61854025394722 -114.5482078637251
3047600000.0 -0.002980527 -0.005048278 -44.63837501802435 -120.5578015233728
3048000000.0 -0.00358801 -0.004688288 -44.577491159655615 -127.4273171736687
3048400000.0 -0.003876766 -0.004374288 -44.66434971717697 -131.54935741953082
3048800000.0 -0.004433312 -0.003818377 -44.655390780969 -139.26193634644173
3049200000.0 -0.004700773 -0.003367034 -44.75809261991769 -144.3870196127969
3049600000.0 -0.005104732 -0.002750363 -44.733663110040055 -151.68479214077786
3050000000.0 -0.005462773 -0.002356909 -44.51034662079269 -156.6622564260813
3050400000.0 -0.005457109 -0.001739646 -44.84041333576955 -162.31848427693217
3050800000.0 -0.005771282 -0.001254943 -44.57391427764621 -167.73222617588942
3051200000.0 -0.005802837 -0.0005530839 -44.687917193284136 -174.55543347007338
3051600000.0 -0.005788021 6.991257e-05 -44.748764454801496 179.3079671955446
3052000000.0 -0.005692817 0.0007277459 -44.823056822624224 172.71505935708814
3052400000.0 -0.005682293 0.001320423 -44.6811290215605 166.91806050514433
3052800000.0 -0.005458286 0.001893776 -44.765231187260845 160.86556098274667
3053200000.0 -0.005160187 0.002449237 -44.86432284499913 154.60906065322243
3053600000.0 -0.004948985 0.002969282 -44.77437256452507 149.03717136179387
3054000000.0 -0.004598359 0.003533606 -44.7325664380523 142.45954662353324
3054400000.0 -0.004232543 0.004014591 -44.68120680185331 136.51383786590728
3054800000.0 -0.003977463 0.004430559 -44.50382964554619 131.9153978571964
3055200000.0 -0.003364233 0.004828257 -44.605458864478535 124.8680130887639
3055600000.0 -0.002765785 0.004996498 -44.86588490373532 118.9664885334049
3056000000.0 -0.002261967 0.005430409 -44.60850646972829 112.61354085130034
3056400000.0 -0.001714434 0.00548136 -44.816888915497714 107.36839352378429
3056800000.0 -0.00107996 0.005768733 -44.62878929591494 100.60355973820924
3057200000.0 -0.0004551062 0.00580167 -44.70229729677521 94.48532507057386
3057600000.0 0.0001777097 0.005851221 -44.65106578867632 88.26038243679946
3058000000.0 0.0007999158 0.005841313 -44.58910201447826 82.20235454139026
3058400000.0 0.00137162 0.005710111 -44.623482468241924 76.49294512683187
3058800000.0 0.001919748 0.005363521 -44.88747961837328 70.30634941687491
3059200000.0 0.002469379 0.005135581 -44.88490629293494 64.32001565125296
3059600000.0 0.003024368 0.004903256 -44.79009481127582 58.33337847603563
3060000000.0 0.003446375 0.004560824 -44.85736342274309 52.923575272160456
3060400000.0 0.003991236 0.00409583 -44.85375380080174 45.7409931670235
3060800000.0 0.004470502 0.003688459 -44.737884714539994 39.524879717838054
3061200000.0 0.004734773 0.003256662 -44.81171340377041 34.52089260893221
3061600000.0 0.005087976 0.00267686 -44.80788075271039 27.749526645041275
3062000000.0 0.005282647 0.002151054 -44.8767064538925 22.155782355077292
3062400000.0 0.00549082 0.001586724 -44.8589344196914 16.11810951565367
3062800000.0 0.005721097 0.001033323 -44.710999098028395 10.238169639307522
3063200000.0 0.005723124 0.0003462193 -44.8314723618177 3.46187836351364
3063600000.0 0.005755 -8.879467e-05 -44.79805969011407 -0.8839541581473997
3064000000.0 0.005860597 -0.0006993281 -44.5797599441573 -6.804763900829509
3064400000.0 0.005521218 -0.001420606 -44.880903200929474 -14.429185003662102
3064800000.0 0.005376657 -0.002017092 -44.817875304630775 -20.563945140975758
3065200000.0 0.005210728 -0.002535233 -44.7393104317612 -25.944822759329938
3065600000.0 0.004876615 -0.00303911 -44.81254978896431 -31.93119046670971
3066000000.0 0.004681008 -0.003633634 -44.545056954213074 -37.820413843712124
3066400000.0 0.004120553 -0.003953077 -44.86705475424407 -43.81165076940746
3066800000.0 0.003751651 -0.004426624 -44.72758363554115 -49.718067403859834
3067200000.0 0.003254968 -0.004755251 -44.78767366107516 -55.60837054616034
3067600000.0 0.002709365 -0.005022922 -44.87176852839312 -61.65756885504389
3068000000.0 0.002164876 -0.005304241 -44.838394486776025 -67.79763561694877
3068400000.0 0.001664116 -0.005579545 -44.6979255799204 -73.39263113417175
3068800000.0 0.001091798 -0.005738187 -44.67006087450605 -79.22716871058245
3069200000.0 0.0004075469 -0.005879334 -44.59261920480714 -86.03468279906866
3069600000.0 -0.0001612699 -0.005783222 -44.75322687875324 -91.59732596477646
3070000000.0 -0.0008278319 -0.005725406 -44.75401649969041 -98.22733371885396
3070400000.0 -0.001341293 -0.005574535 -44.83140746322326 -103.52881578706285
3070800000.0 -0.002012716 -0.005407996 -44.77589071079957 -110.41396272469932
3071200000.0 -0.002555896 -0.005180266 -44.766729443256935 -116.26131128444445
3071600000.0 -0.003124049 -0.004799003 -44.84257100607435 -123.06327245878806
3072000000.0 -0.003563075 -0.004467245 -44.86093120438439 -128.57586559547488
3072400000.0 -0.004021516 -0.004075271 -44.84385424559385 -134.61961585781282
3072800000.0 -0.004524538 -0.003710531 -44.654727836336235 -140.6451442200279
3073200000.0 -0.004684227 -0.00314645 -44.96997886322892 -146.11028100456605
3073600000.0 -0.005101549 -0.002759296 -44.731502534490076 -151.5921901304337
3074000000.0 -0.005270404 -0.002022984 -44.96623079580828 -159.00127484021354
3074400000.0 -0.005481465 -0.001574224 -44.87787505101441 -163.97644374934046
3074800000.0 -0.00570453 -0.0009836424 -44.748357473982736 -170.21659080251308
3075200000.0 -0.005732799 -0.0003399299 -44.817422811091504 -176.60658426955777
3075600000.0 -0.005786244 0.0002088824 -44.74640910113254 177.93253014005336
3076000000.0 -0.005764013 0.0009452744 -44.67024205670629 170.68663081441684
3076400000.0 -0.005553018 0.00143392 -44.82907929655614 165.5211634064079
3076800000.0 -0.005323566 0.001989832 -44.908003504143096 159.5053614351797
3077200000.0 -0.005175604 0.002611561 -44.73568604799924 153.2249189553803
3077600000.0 -0.004838663 0.003100487 -44.81148241150416 147.3493278591393
3078000000.0 -0.004421 0.003660201 -44.82245919127546 140.3782190373965
3078400000.0 -0.004058961 0.004194041 -44.67689766931325 134.0623020699386
3078800000.0 -0.003684395 0.004444967 -44.771321363589784 129.65504411472273
3079200000.0 -0.003144645 0.004827681 -44.789234542476486 123.0793343901911
3079600000.0 -0.002656764 0.005080384 -44.832175182207195 117.60711561655427
3080000000.0 -0.002132471 0.005382256 -44.747463641865224 111.61366563467313
3080400000.0 -0.001404155 0.005509425 -44.90455889582649 104.29824399117251
3080800000.0 -0.0009853778 0.005720486 -44.72435448161201 99.77352734402602
3081200000.0 -0.0002147232 0.00575568 -44.79202705393209 92.13650348818143
3081600000.0 0.0003478132 0.005770084 -44.760605700149924 86.55045847720632
3082000000.0 0.0008862347 0.00569065 -44.79268808375664 81.14813421342878
3082400000.0 0.001534214 0.0055027 -44.86336080199197 74.42093816028796
3082800000.0 0.002138579 0.005385075 -44.74015633253078 68.34045003516411
3083200000.0 0.002678026 0.00507282 -44.82733802075917 62.16968191636463
3083600000.0 0.00313845 0.004780772 -44.85377224222421 56.716163187816676
3084000000.0 0.003650036 0.004348268 -44.91737034544923 49.98913055788922
3084400000.0 0.004165303 0.004000857 -44.768181471908946 43.84636249347673
3084800000.0 0.004554046 0.003494251 -44.82156113802783 37.49848431150959
3085200000.0 0.004956814 0.00304992 -44.70158940882543 31.603921499551255
3085600000.0 0.005077574 0.002627366 -44.85654037633182 27.35908558024759
3086000000.0 0.005402999 0.002044975 -44.76587561971998 20.73109664045801
3086400000.0 0.005641386 0.001372191 -44.722651576333696 13.670942491356463
3086800000.0 0.00571906 0.0008037737 -44.768559890580875 8.000120189869891
3087200000.0 0.005838589 0.0001542787 -44.67081060588822 1.513629733569333
3087600000.0 0.005742323 -0.0004977102 -44.78574371476975 -4.953675467898469
3088000000.0 0.005803596 -0.0009399148 -44.61361348513038 -9.199397376403178
3088400000.0 0.005682297 -0.001528558 -44.606103589641265 -15.056348036408552
3088800000.0 0.005288006 -0.002204915 -44.83799795244482 -22.634442627505866
3089200000.0 0.005130422 -0.002731181 -44.71332903774973 -28.02861242553425
3089600000.0 0.004837859 -0.003177171 -44.749643292264224 -33.29413890603454
3090000000.0 0.004454959 -0.003760204 -44.68702581716169 -40.16600766958067
3090400000.0 0.004026901 -0.004234884 -44.66607077184708 -46.44206509305493
3090800000.0 0.003597229 -0.004637968 -44.628006426797654 -52.202682273266376
3091200000.0 0.00300156 -0.004902266 -44.80939267550209 -58.52169294172095
3091600000.0 0.002589996 -0.005314989 -44.564635178984844 -64.02000969461568
3092000000.0 0.001911001 -0.005461672 -44.75191385582899 -70.7154137061454
3092400000.0 0.001294324 -0.005639523 -44.75221110747704 -77.07393094285565
3092800000.0 0.000909593 -0.005772008 -44.666927789382164 -81.04458144900411
3093200000.0 0.00023373 -0.00579692 -44.72899936719787 -87.69110273516584
3093600000.0 -0.0004015146 -0.005855347 -44.62857389300069 -93.92276247802494
3094000000.0 -0.001118752 -0.00574936 -44.646204672271146 -101.01142325417321
3094400000.0 -0.001641981 -0.005517621 -44.79644310088699 -106.5724041373006
3094800000.0 -0.002237784 -0.005382451 -44.68796359627032 -112.57537090904214
3095200000.0 -0.002762626 -0.005145967 -44.670790827842104 -118.22924500247758
3095600000.0 -0.003328748 -0.004817798 -44.64810467415635 -124.64165238214369
3096000000.0 -0.00383145 -0.004404919 -44.67458101576362 -131.01712701859464
3096400000.0 -0.004243622 -0.003936223 -44.74926942901311 -137.15216561223156
3096800000.0 -0.004655757 -0.003524763 -44.672452714169125 -142.87150174885406
3097200000.0 -0.004918245 -0.003016045 -44.77742810030804 -148.4818743802891
3097600000.0 -0.00528317 -0.002492414 -44.66939903858082 -154.7437080186054
3098000000.0 -0.005527817 -0.002043121 -44.59281408943603 -159.715324231897
3098400000.0 -0.005693263 -0.001300617 -44.67183879573919 -167.13169595556306
3098800000.0 -0.005789367 -0.0007298044 -44.67890731441141 -172.81522352223112
3099200000.0 -0.005770379 -5.838168e-05 -44.775468691011646 -179.42033101535603
3099600000.0 -0.005916855 0.0005465543 -44.52128177370126 174.7224259591809
3100000000.0 -0.0057441 0.001194902 -44.63157899244209 168.24878114374332
3100400000.0 -0.005578692 0.001755232 -44.65940322440662 162.53478449146547
3100800000.0 -0.005439112 0.002330494 -44.55744112636751 156.80633995835663
3101200000.0 -0.005151512 0.002836716 -44.611117986777906 151.16031467185815
3101600000.0 -0.004852082 0.003500222 -44.46186687048793 144.1938630859052
3102000000.0 -0.004343308 0.003938177 -44.63775455374173 137.8006819986632
3102400000.0 -0.003980706 0.004409573 -44.5234398147866 132.07388724201425
3102800000.0 -0.00340368 0.004684281 -44.74598491648325 126.0028069937267
3103200000.0 -0.002971297 0.005060027 -44.630317074154 120.42186963886843
3103600000.0 -0.00239065 0.005403158 -44.57058563524488 113.86719600962778
3104000000.0 -0.001772797 0.005584775 -44.64294305579324 107.61120364994343
3104400000.0 -0.001161403 0.005659821 -44.76482044149467 101.59619789735491
