## frequency[GHz]  I  Q  LogM[dB] Phase[deg]
3000000000.0 -0.003515772 -0.005724878 -43.45487699480807 -121.55498995227434
3000400000.0 -0.004205208 -0.005245477 -43.448730637600406 -128.7185464930197
3000800000.0 -0.004671658 -0.004792963 -43.48752205531472 -134.26569864715927
3001200000.0 -0.005212015 -0.004448517 -43.28323668952865 -139.51884770899943
3001600000.0 -0.005680708 -0.003709183 -43.36973348580365 -146.85772132825676
3002000000.0 -0.00589266 -0.003156421 -43.498242872226285 -151.824138404465
3002400000.0 -0.006148105 -0.002465704 -43.57744354330939 -158.14669463994196
3002800000.0 -0.006455033 -0.001725203 -43.502390754952955 -165.0365931537626
3003200000.0 -0.006596163 -0.001101203 -43.49478643181187 -170.5221066722401
3003600000.0 -0.006570119 -0.000359041 -43.63558503280675 -176.87203647144528
3004000000.0 -0.006614059 0.0003261328 -43.58009217377998 177.17708735687546
3004400000.0 -0.006412008 0.00094465 -43.76686498589257 171.6191784377622
3004800000.0 -0.006386509 0.001628733 -43.62107500155738 165.69298914795476
3005200000.0 -0.00619897 0.002488978 -43.504486269686524 158.12381082254717
3005600000.0 -0.005839145 0.003012251 -43.64825291072777 152.71206119879267
3006000000.0 -0.005540575 0.003564963 -43.62440903768344 147.2416224186118
3006400000.0 -0.005133443 0.004065234 -43.67761788106803 141.62388231971582
3006800000.0 -0.004728839 0.004709339 -43.512518144221126 135.11837730870928
3007200000.0 -0.003940921 0.005182913 -43.72701285056224 127.24819540880384
3007600000.0 -0.003448921 0.005477622 -43.77792208124962 122.19609264462109
3008000000.0 -0.002957727 0.005778994 -43.7525475942315 117.10366410519175
3008400000.0 -0.002267082 0.006096343 -43.73607697309878 110.39894614982644
3008800000.0 -0.001555098 0.006223404 -43.856397948584984 104.02971858028366
3009200000.0 -0.0008843453 0.006404588 -43.78815260376822 97.86168702747817
3009600000.0 -0.0002632849 0.006499794 -43.73488813121067 92.31959215885796
3010000000.0 0.0003624142 0.00654421 -43.669556574297694 86.83023384160835
3010400000.0 0.001093077 0.006428587 -43.71390931863395 80.3500731531086
3010800000.0 0.001727128 0.006177991 -43.85624419945454 74.3810575638666
3011200000.0 0.002343735 0.005992907 -43.82915451040066 68.6402859951961
3011600000.0 0.003018841 0.005682199 -43.82991408842663 62.01916688339927
3012000000.0 0.003579524 0.00537442 -43.798912074632874 56.33520114694981
3012400000.0 0.004111547 0.00491275 -43.867933749410604 50.073581067507554
3012800000.0 0.004593801 0.004490724 -43.8436963866305 44.349924884315456
3013200000.0 0.004949375 0.003912239 -44.00095902430798 38.3246468176153
3013600000.0 0.005493556 0.003361747 -43.821560129605814 31.464285539600482
3014000000.0 0.005756252 0.002739593 -43.91048364342182 25.451340467153173
3014400000.0 0.006024056 0.001999954 -43.94812793040149 18.36588719514756
3014800000.0 0.006231951 0.00148991 -43.86612310543073 13.445665552826323
3015200000.0 0.006305454 0.0008978595 -43.91849570731904 8.104101345221398
3015600000.0 0.006428463 0.0001930338 -43.83394284606274 1.719960065184047
3016000000.0 0.006225502 -0.000569148 -44.080365035808356 -5.2235756274449905
3016400000.0 0.006178247 -0.001136474 -44.038175055033065 -10.422907137760086
3016800000.0 0.00596777 -0.001856883 -44.08242263967453 -17.283629364051148
3017200000.0 0.005860723 -0.002358158 -43.989293366297304 -21.91819729030281
3017600000.0 0.005539917 -0.002964459 -44.03637183891242 -28.151632888620693
3018000000.0 0.005174728 -0.003501086 -44.08541220786176 -34.081256786788195
3018400000.0 0.004757149 -0.004105102 -44.035972364790936 -40.792000781639885
3018800000.0 0.004292515 -0.00448566 -44.14011324048787 -46.26046792293893
3019200000.0 0.003761132 -0.004977264 -44.09835304838388 -52.92302440867874
3019600000.0 0.003281537 -0.005328353 -44.07159193622016 -58.37260936928927
3020000000.0 0.002737036 -0.005678288 -44.008342075642226 -64.26510479154638
3020400000.0 0.002004768 -0.00592929 -44.06984624463733 -71.31895394410026
3020800000.0 0.001441245 -0.006006174 -44.18490507896259 -76.50640229749153
3021200000.0 0.0006786069 -0.006105448 -44.23232598172621 -83.65773375602136
3021600000.0 0.0001231909 -0.006098277 -44.29408515636251 -88.8427290585413
3022000000.0 -0.0004731595 -0.006190603 -44.14004397858797 -94.37072703010504
3022400000.0 -0.00124291 -0.006123791 -44.084274377642515 -101.47313991929289
3022800000.0 -0.001877784 -0.005780763 -44.32464388427146 -107.99551955791502
3023200000.0 -0.002395948 -0.005676772 -44.20601643012921 -112.88274514797281
3023600000.0 -0.003108084 -0.005320217 -44.20617796024327 -120.29357869477258
3024000000.0 -0.003543634 -0.004992557 -44.26166035673334 -125.36649941532893
3024400000.0 -0.004081042 -0.004632054 -44.18951614859053 -131.3814611273729
3024800000.0 -0.004480071 -0.004142168 -44.29123389764367 -137.24425621388622
3025200000.0 -0.00482149 -0.003645293 -44.37291757551107 -142.90885510225567
3025600000.0 -0.005299511 -0.00315307 -44.19911735389615 -149.24846469823748
3026000000.0 -0.005546024 -0.002607391 -44.25310608710791 -154.820047244832
3026400000.0 -0.005766769 -0.001845203 -44.3580281487059 -162.25679816444267
3026800000.0 -0.0058664 -0.001344211 -44.41032943157319 -167.09419049550996
3027200000.0 -0.006041742 -0.0006872004 -44.3209310013933 -173.51094557773277
3027600000.0 -0.00603194 -2.034047e-05 -44.39081035690158 -179.8067920657523
3028000000.0 -0.00601702 0.000625272 -44.3657237700296 174.06727605034118
3028400000.0 -0.006028132 0.001210339 -44.22470334272043 168.64700477705563
3028800000.0 -0.005781999 0.001758925 -44.37405856456537 163.07986803579055
3029200000.0 -0.005492087 0.002437808 -44.42421494713745 156.06469311020035
3029600000.0 -0.005329266 0.002960133 -44.29883818397044 150.95008169148946
3030000000.0 -0.00481965 0.003523795 -44.47987280474189 143.82830886948722
3030400000.0 -0.004468011 0.004040495 -44.40228324629977 137.8764485958369
3030800000.0 -0.003950614 0.004592366 -44.35367349840757 130.7039874062729
3031200000.0 -0.003460274 0.00488081 -44.46167897840642 125.33491984527275
3031600000.0 -0.003021544 0.005139024 -44.49291181652633 120.45385369823786
3032000000.0 -0.002426981 0.005387494 -44.56983869117223 114.25081258664444
3032400000.0 -0.001855195 0.005639234 -44.529307210726365 108.21016970564011
3032800000.0 -0.001266535 0.005722981 -44.63989537826551 102.47882013550118
3033200000.0 -0.000584459 0.005825595 -44.64969962824422 95.72908949591286
3033600000.0 -2.160145e-06 0.005908214 -44.57087507143454 90.02094832484427
3034000000.0 0.0006291867 0.005943069 -44.471378539759385 83.95666510993031
3034400000.0 0.001294416 0.005841085 -44.46192353545448 77.50487466918148
3034800000.0 0.00189989 0.005691514 -44.436623514618496 71.54042306968968
3035200000.0 0.002383416 0.005488777 -44.46027881950107 66.52785414756286
3035600000.0 0.003058302 0.005097161 -44.51803982616862 59.03619883566123
3036000000.0 0.003523304 0.00485207 -44.44225555952648 54.014928672146425
3036400000.0 0.003961246 0.004423131 -44.527724107295235 48.15316677201856
3036800000.0 0.004474743 0.003984147 -44.44944842530482 41.68069609902383
3037200000.0 0.004876069 0.003489023 -44.44309194622221 35.58524060271497
3037600000.0 0.005119669 0.00289883 -44.60745374611072 29.519161290451095
3038000000.0 0.00536956 0.00238458 -44.619493886183946 23.945636215138865
3038400000.0 0.005604764 0.001757769 -44.621414884733625 17.412495190016635
3038800000.0 0.005788284 0.001183103 -44.571252433086045 11.551919906604942
3039200000.0 0.005870625 0.0005733731 -44.58508190299824 5.578280648183073
3039600000.0 0.005883357 -5.679288e-05 -44.60709128916211 -0.5530671117911956
3040000000.0 0.005848763 -0.0006525946 -44.604984967370015 -6.366627715251157
3040400000.0 0.00577269 -0.001211599 -44.58521579324571 -11.85344886325105
3040800000.0 0.00560301 -0.00187979 -44.56834593786088 -18.54642038263493
3041200000.0 0.005321563 -0.002485387 -44.6222897828729 -25.034493362848984
3041600000.0 0.005077353 -0.002925034 -44.64258680760683 -29.945998310421224
3042000000.0 0.004640582 -0.003419844 -44.7846528988114 -36.38809491838879
3042400000.0 0.004295636 -0.003923624 -44.704757904425406 -42.408503858785274
3042800000.0 0.003897185 -0.004385319 -44.632008223148894 -48.372857288327914
3043200000.0 0.003431902 -0.004724395 -44.672728836660355 -54.00453969459306
3043600000.0 0.002870278 -0.005075861 -44.68484543869131 -60.51287895991651
3044000000.0 0.002232711 -0.005315986 -44.78277509110179 -67.21762285453651
3044400000.0 0.001682262 -0.005544592 -44.74016241397518 -73.12189239959945
3044800000.0 0.001128367 -0.005718437 -44.68856720312193 -78.83774182165251
3045200000.0 0.000583041 -0.005865382 -44.59137148591563 -84.32323289133626
3045600000.0 -1.883697e-05 -0.005768715 -44.7783720246261 -90.18709106687695
3046000000.0 -0.000719352 -0.005857881 -44.580186319627664 -97.00091205234621
3046400000.0 -0.00123342 -0.005719905 -44.65483518383374 -102.16873026511084
3046800000.0 -0.001906298 -0.005575423 -44.594288682297204 -108.87611832616768
3047200000.0 -0.002347161 -0.005431968 -44.55740398183298 -113.36924056301964
3047600000.0 -0.002911848 -0.004968166 -44.79365411735613 -120.37461819703312
3048000000.0 -0.003510521 -0.004647281 -44.69531629858157 -127.0671238840013
3048400000.0 -0.003871793 -0.004332425 -44.71588719104802 -131.78645919379738
3048800000.0 -0.004381852 -0.003832241 -44.69970747372503 -138.82799681750055
3049200000.0 -0.004752087 -0.003380361 -44.68403949787116 -144.57414419430768
3049600000.0 -0.005041239 -0.002759938 -44.81073697003027 -151.3005223378475
3050000000.0 -0.005391418 -0.00234511 -44.61339202862688 -156.49236126373523
3050400000.0 -0.005555976 -0.001800462 -44.67111497884769 -162.04463535839517
3050800000.0 -0.005778159 -0.001175689 -44.58803227687713 -168.49895960542318
3051200000.0 -0.005817682 -0.0005990381 -44.659196676837674 -174.1210572089089
3051600000.0 -0.0057916 4.958639e-05 -44.74371046748972 179.50945827574353
3052000000.0 -0.005763661 0.000638365 -44.73308027496767 173.67985854651573
3052400000.0 -0.005865056 0.001345253 -44.41188416510645 167.0816612172434
3052800000.0 -0.005356917 0.001917721 -44.89800772488027 160.30315675509542
3053200000.0 -0.005173307 0.002411711 -44.8705618147369 155.00583767056543
3053600000.0 -0.005046688 0.003053351 -44.58520454321497 148.82519113976053
3054000000.0 -0.004693501 0.003557371 -44.59872825028124 142.8402200007673
3054400000.0 -0.004250046 0.004050522 -44.62563510934775 136.3769759019439
3054800000.0 -0.003677391 0.004399278 -44.8310978014625 129.89251528497158
3055200000.0 -0.003269597 0.004741848 -44.79184002302137 124.58702321058064
3055600000.0 -0.002718519 0.005066974 -44.806371068061914 118.2143258871452
3056000000.0 -0.0022185 0.005337394 -44.76129803397674 112.57032482251418
3056400000.0 -0.001631088 0.00558329 -44.70652106683245 106.2850597299054
3056800000.0 -0.001122816 0.005634759 -44.81338362499546 101.26949027994587
3057200000.0 -0.0005198119 0.005751812 -44.76857991018747 95.16399699605073
3057600000.0 0.0002018638 0.005831622 -44.67901197913029 88.0174765163486
3058000000.0 0.0007779103 0.005773768 -44.69268439397258 82.32664303943828
3058400000.0 0.001286618 0.005545085 -44.89410040829115 76.93689699552156
3058800000.0 0.001932743 0.005388557 -44.84496496615538 70.26833706278602
3059200000.0 0.002510923 0.0051983 -44.7720303309578 64.21816956465842
3059600000.0 0.002882522 0.004905084 -44.898736405800996 59.55894673752688
3060000000.0 0.003445471 0.004629268 -44.775376043956676 53.340431945379954
3060400000.0 0.003998898 0.004192641 -44.7405611350229 46.35488422982644
3060800000.0 0.004452597 0.003771413 -44.678933928995114 40.26507385882018
3061200000.0 0.004802197 0.003273641 -44.713683646578765 34.28211827854024
3061600000.0 0.005030806 0.002742458 -44.837279942789166 28.596255752746927
3062000000.0 0.00538227 0.002276574 -44.665886964794275 22.92722245231967
3062400000.0 0.00551031 0.00162048 -44.81624638928828 16.387631932196957
3062800000.0 0.005591257 0.0009611165 -44.92334345530924 9.75361140853411
3063200000.0 0.005755266 0.0003828122 -44.77952004054779 3.8054300978339186
3063600000.0 0.00584651 -0.000176597 -44.658105476474844 -1.730123995743431
3064000000.0 0.005629757 -0.0008677458 -44.888234883111735 -8.762360434044675
3064400000.0 0.005577906 -0.001409682 -44.801688745136595 -14.183150904846912
3064800000.0 0.005398539 -0.001923799 -44.83527746477663 -19.613804429212887
3065200000.0 0.005147674 -0.002615804 -44.770216627411315 -26.9375195837032
3065600000.0 0.004890672 -0.00304247 -44.79185189449148 -31.885599191542582
3066000000.0 0.004598752 -0.003581377 -44.688433318107656 -37.91044218706261
3066400000.0 0.004183754 -0.003906208 -44.84626167716761 -43.03509832966354
3066800000.0 0.003722237 -0.004404263 -44.781746418314754 -49.797372671841536
3067200000.0 0.0031801 -0.004804803 -44.78872801542062 -56.50107573758256
3067600000.0 0.002687374 -0.005018625 -44.89340052261114 -61.83183504635026
3068000000.0 0.002095631 -0.005329821 -44.841438835419005 -68.5357563815667
3068400000.0 0.001528385 -0.005451246 -44.941442743421476 -74.33791050276119
3068800000.0 0.0009909831 -0.005612242 -44.88393235416608 -79.9862040817156
3069200000.0 0.0003099301 -0.005792052 -44.73093369168983 -86.93704970727323
3069600000.0 -0.0001350227 -0.005775399 -44.7659870377987 -91.33927055676727
3070000000.0 -0.0007534676 -0.005725692 -44.76887723939272 -97.49671413725731
3070400000.0 -0.00133739 -0.005597576 -44.79890408523381 -103.43737564019175
3070800000.0 -0.002025932 -0.005337767 -44.86833598876774 -110.7840939861901
3071200000.0 -0.002553853 -0.005194595 -44.74877644490818 -116.18041997391559
3071600000.0 -0.002876205 -0.004944504 -44.85177745671752 -120.18645150713459
3072000000.0 -0.00354408 -0.004553694 -44.77599692554192 -127.89315163560589
3072400000.0 -0.004020776 -0.004111903 -44.80508210404989 -134.3580253193165
3072800000.0 -0.004342665 -0.003649355 -44.9246077670599 -139.95801261337806
3073200000.0 -0.004791585 -0.003213508 -44.77739428704374 -146.15195872211382
3073600000.0 -0.005137167 -0.002682272 -44.73853769752873 -152.42956166256582
3074000000.0 -0.005435914 -0.002116014 -44.68180470853611 -158.73075132084074
3074400000.0 -0.005523164 -0.001572134 -44.81789568423903 -164.11132916106823
3074800000.0 -0.005680137 -0.001005046 -44.7789402447126 -169.9659142258852
3075200000.0 -0.005822218 -0.0004401922 -44.673476270774 -175.67634482984312
3075600000.0 -0.005722419 0.0003189879 -44.834932826600934 176.80943234180845
3076000000.0 -0.005791508 0.0008396632 -44.65382548857253 171.7506346124749
3076400000.0 -0.005590972 0.001472109 -44.7591464512376 165.24876453680292
3076800000.0 -0.005399627 0.002047607 -44.76921531717856 159.23263766152874
3077200000.0 -0.005086787 0.002667977 -44.81571568542904 152.32336765089804
3077600000.0 -0.00489287 0.003141762 -44.709439713458245 147.29506393669757
3078000000.0 -0.004443754 0.003664262 -44.79205228090643 140.49144986645152
3078400000.0 -0.004136522 0.004010505 -44.78927790009516 135.8861719133373
3078800000.0 -0.003642372 0.004461045 -44.79283382744019 129.23108901482172
3079200000.0 -0.003221488 0.004780125 -44.78501288355184 123.9773634641249
3079600000.0 -0.002583524 0.005020091 -44.96537409322321 117.23202136298467
3080000000.0 -0.002157754 0.005311499 -44.83227726550389 112.10905512363242
3080400000.0 -0.00144627 0.005432493 -45.00262384002322 104.9078338103525
3080800000.0 -0.0009503259 0.005645459 -44.84466222319383 99.55527786981405
3081200000.0 -0.0003558627 0.005627167 -44.976869764166956 93.61857300478103
3081600000.0 0.0003794417 0.005791983 -44.72485543036892 86.25182147846076
3082000000.0 0.0009119669 0.005605151 -44.91478342693219 80.75886180721349
3082400000.0 0.001476971 0.005549608 -44.817547176407714 75.09677505136142
3082800000.0 0.002113193 0.005378784 -44.762938181597164 68.55134747340016
3083200000.0 0.002667544 0.005187463 -44.68194675361347 62.78645752740754
3083600000.0 0.003151963 0.00481117 -44.804052558286784 56.76981261513147
3084000000.0 0.003831038 0.004441473 -44.63396936377236 49.22025121341582
3084400000.0 0.004208107 0.004034152 -44.68744075273078 43.79093730686534
3084800000.0 0.004594024 0.003592873 -44.683449368233354 38.028086927525656
3085200000.0 0.004903513 0.003099069 -44.73032117607336 32.29329382403341
3085600000.0 0.0052591 0.002561023 -44.65758430459161 25.964684598176493
3086000000.0 0.005533868 0.002130956 -44.53893472168634 21.060464002988528
3086400000.0 0.005553168 0.001466823 -44.81627629641593 14.796264904541175
3086800000.0 0.005703683 0.0008751852 -44.77582517525902 8.723546592162416
3087200000.0 0.005920799 0.0002293404 -44.545882470391014 2.218226143182584
3087600000.0 0.005657515 -0.0004237159 -44.92319349690451 -4.2831337556462366
3088000000.0 0.005687833 -0.0009455649 -44.78266644873523 -9.43872663342928
3088400000.0 0.005624109 -0.001617139 -44.65393437416531 -16.041897340137293
3088800000.0 0.005458629 -0.00202717 -44.69722817653413 -20.373476408609783
3089200000.0 0.005074437 -0.002728433 -44.78937041317159 -28.266115640485516
3089600000.0 0.004858749 -0.003299696 -44.622383673052184 -34.181390861039034
3090000000.0 0.004376233 -0.003774282 -44.76297486458627 -40.776125878125335
3090400000.0 0.00405734 -0.004137371 -44.739212912748954 -45.559542948482516
3090800000.0 0.0035161 -0.00465937 -44.67593603429041 -52.96070347537437
3091200000.0 0.002987153 -0.00495485 -44.75297298043411 -58.91529409415894
3091600000.0 0.002599771 -0.005263707 -44.6261641677704 -63.71500539362709
3092000000.0 0.001981849 -0.005401578 -44.8010942051663 -69.8518190396046
3092400000.0 0.00132407 -0.005697294 -44.658174708656574 -76.9165229853736
3092800000.0 0.0007763064 -0.005598906 -44.955237000433435 -82.10608446460944
3093200000.0 0.0001466247 -0.005751086 -44.80218075607964 -88.53955288177582
3093600000.0 -0.0004584355 -0.005784295 -44.72779692027369 -94.53151665904619
3094000000.0 -0.001064084 -0.005671721 -44.77546717339946 -100.62586487425364
3094400000.0 -0.001678075 -0.005665111 -44.5705738723228 -106.49993185833313
3094800000.0 -0.002270092 -0.005306595 -44.773827589631 -113.16060618124551
3095200000.0 -0.002766768 -0.005173178 -44.63229817452661 -118.13918388587297
3095600000.0 -0.003266532 -0.004801536 -44.720483086545926 -124.22783815889008
3096000000.0 -0.003749133 -0.004493007 -44.654267971121655 -129.8428830338236
3096400000.0 -0.004248386 -0.003952528 -44.72740616308383 -137.06611926653733
3096800000.0 -0.004636263 -0.003503613 -44.71465870134693 -142.92174470083955
3097200000.0 -0.00509625 -0.00305139 -44.52437634151544 -149.08884872799118
3097600000.0 -0.005266276 -0.002504896 -44.6841677694097 -154.5619757788906
3098000000.0 -0.005575668 -0.001883634 -44.604703795310314 -161.3334327234354
3098400000.0 -0.005681308 -0.001248733 -44.706133506887376 -167.60369002674383
3098800000.0 -0.005783255 -0.0006424615 -44.70328499818041 -173.66100599934128
3099200000.0 -0.005858267 -7.903689e-05 -44.643826335607464 -179.22704009676795
3099600000.0 -0.005836414 0.0004172226 -44.65494110291492 175.91110259839925
3100000000.0 -0.005680577 0.001130277 -44.74353028324628 168.74670141607348
3100400000.0 -0.005552899 0.001729961 -44.70730708838435 162.69599740323886
3100800000.0 -0.005216584 0.002273215 -44.89719734550904 156.45401825894922
3101200000.0 -0.00507771 0.002855927 -44.69295099097267 150.6446883666415
3101600000.0 -0.004741964 0.003454431 -44.631977630655435 143.92737062052817
3102000000.0 -0.004414829 0.003768893 -44.72431065147649 139.51296345944388
3102400000.0 -0.003792351 0.004383016 -44.73754372756491 130.8675971915208
3102800000.0 -0.003481013 0.004693454 -44.66660647876851 126.56336849167711
3103200000.0 -0.002938248 0.004945676 -44.802636978759665 120.71473427322238
3103600000.0 -0.002470435 0.005250084 -44.72802919767015 115.19940132810719
3104000000.0 -0.001849689 0.005584399 -44.608377840300236 108.32612850076218
3104400000.0 -0.001136404 0.005609136 -44.847380324710926 101.45303181233864
