## frequency[GHz]  I  Q  LogM[dB] Phase[deg]
3000000000.0 -0.003718209 -0.005718046 -43.32349761349083 -123.03428518546929
3000400000.0 -0.004133692 -0.005277375 -43.473853280554415 -128.07108798346923
3000800000.0 -0.004749018 -0.004740302 -43.46559444842911 -135.05262651842267
3001200000.0 -0.005165195 -0.004301959 -43.44995230988488 -140.20994868457183
3001600000.0 -0.005578944 -0.003696322 -43.48844027461401 -146.47358828553777
3002000000.0 -0.005917235 -0.003079829 -43.51649585428048 -152.50372223993932
3002400000.0 -0.006242281 -0.002470159 -43.46134050537113 -158.41059284506645
3002800000.0 -0.006489457 -0.001751153 -43.45057724338203 -164.8986575572864
3003200000.0 -0.006600275 -0.001113676 -43.486841389974145 -170.42259336792014
3003600000.0 -0.006602767 -0.000282304 -43.59754879488551 -177.5517866161964
3004000000.0 -0.006589563 0.0004211775 -43.605161900430325 176.3428663975727
3004400000.0 -0.006532049 0.001137623 -43.569240376513875 170.12044800318594
3004800000.0 -0.006377473 0.001772508 -43.5838762663311 164.46765120666242
3005200000.0 -0.006236997 0.002365738 -43.51670753161607 159.22790178357255
3005600000.0 -0.005870231 0.003011053 -43.612507218142724 152.84507794699834
3006000000.0 -0.005460225 0.003570482 -43.709739037356776 146.81902675767392
3006400000.0 -0.005060271 0.00415312 -43.68001051025952 140.6232212169249
3006800000.0 -0.004618392 0.004582267 -43.73385430669188 135.22496208138944
3007200000.0 -0.004066919 0.005060526 -43.75215264092442 128.7872871136035
3007600000.0 -0.003478247 0.005503487 -43.727717120718395 122.29320799677288
3008000000.0 -0.002850785 0.005817255 -43.77087616475357 116.10747531571832
3008400000.0 -0.00230651 0.006120254 -43.687846263834075 110.64967415816416
3008800000.0 -0.001580001 0.00625666 -43.80466360244179 104.17265065290121
3009200000.0 -0.0009327283 0.006509249 -43.64111255126669 98.1545610947338
3009600000.0 -0.0002839509 0.006444231 -43.80815421840226 92.5229808434503
3010000000.0 0.0003811219 0.006358692 -43.91707030574641 86.56995755991335
3010400000.0 0.001079482 0.006352485 -43.81749484854382 80.35581575150638
3010800000.0 0.001742869 0.006241613 -43.76799051409502 74.39847280935359
3011200000.0 0.002409077 0.005946015 -43.855378616051155 67.94426382851182
3011600000.0 0.003032083 0.005681121 -43.822799651718114 61.91062006103205
3012000000.0 0.003610695 0.005428263 -43.71578804803449 56.36950683710258
3012400000.0 0.00413071 0.004836803 -43.93001726172835 49.50212354316269
3012800000.0 0.004582727 0.004385774 -43.95380879450904 43.741956751042416
3013200000.0 0.00506096 0.003917133 -43.87669242126731 37.73951681634547
3013600000.0 0.005475521 0.003403707 -43.81256003859336 31.86601359531894
3014000000.0 0.005805583 0.002697521 -43.87413066156373 24.92158695339615
3014400000.0 0.005994216 0.002077842 -43.95255125605138 19.11842178995267
3014800000.0 0.006161176 0.001560706 -43.93662787667576 14.214758922109569
3015200000.0 0.006317914 0.0008670347 -43.90749465280209 7.814136698008824
3015600000.0 0.006278457 0.0003311883 -44.03087380486022 3.0195509538871437
3016000000.0 0.006253005 -0.0004529488 -44.05549612242294 -4.143096926636932
3016400000.0 0.006213942 -0.001054788 -44.00928956287782 -9.633866321339388
3016800000.0 0.006038378 -0.001859101 -43.98828338726674 -17.11259726120424
3017200000.0 0.005704706 -0.002518846 -44.10181536126654 -23.823293251643523
3017600000.0 0.005546647 -0.003013791 -43.995909739992314 -28.517607478683818
3018000000.0 0.005131612 -0.003577751 -44.074486010336145 -34.88414181983617
3018400000.0 0.004770017 -0.004144581 -43.98694013426592 -40.98678253713889
3018800000.0 0.004258018 -0.004587036 -44.070285054031125 -47.13030414508356
3019200000.0 0.00385728 -0.00506658 -43.92021545050363 -52.71731849599945
3019600000.0 0.003240053 -0.005360729 -44.063223708944896 -58.85101228325389
3020000000.0 0.002627613 -0.005632725 -44.13053470838192 -64.9913931341782
3020400000.0 0.001951805 -0.005988218 -44.015564375464834 -71.94709392061058
3020800000.0 0.001414781 -0.006048215 -44.136095229819674 -76.83426064391718
3021200000.0 0.0007052071 -0.006252257 -44.02436058306943 -83.56466965611975
3021600000.0 6.417052e-05 -0.006225077 -44.116643975998514 -89.40939369244809
3022000000.0 -0.0005853894 -0.006168165 -44.15793877054875 -95.42141528028039
3022400000.0 -0.001256769 -0.005977885 -44.281214726314786 -101.8727509312028
3022800000.0 -0.001879167 -0.005866514 -44.20819632856981 -107.76134803073964
3023200000.0 -0.002376261 -0.0056224 -44.287804837776044 -112.91094916861861
3023600000.0 -0.003138671 -0.005329157 -44.17355276674117 -120.4964689094693
3024000000.0 -0.003576766 -0.004994577 -44.23208985516695 -125.60758407249244
3024400000.0 -0.004052955 -0.004595526 -44.25444381266477 -131.41019731960307
3024800000.0 -0.004455199 -0.004123021 -44.3358489728154 -137.2175804479764
3025200000.0 -0.004912033 -0.003632096 -44.280561591724485 -143.51973192927096
3025600000.0 -0.00531838 -0.003091013 -44.22054298797987 -149.8350829794117
3026000000.0 -0.005543937 -0.00251567 -44.31049669514649 -155.59289797065478
3026400000.0 -0.005900587 -0.001983787 -44.11702092755266 -161.4172712190107
3026800000.0 -0.005963014 -0.001215022 -44.31401553997695 -168.48308780571807
3027200000.0 -0.006047258 -0.0006539542 -44.31833661643512 -173.82798391234502
3027600000.0 -0.006021502 3.303005e-05 -44.405772628045376 179.68571570989513
3028000000.0 -0.006002881 0.0006196464 -44.38677445440696 174.10652584826082
3028400000.0 -0.005880576 0.001277849 -44.41122637387803 167.7402231819158
3028800000.0 -0.005738712 0.001733144 -44.44462971521466 163.19519914280943
3029200000.0 -0.00547707 0.002485215 -44.415963898709485 155.59387640328367
3029600000.0 -0.00526575 0.002980382 -44.363907818886105 150.49040676096408
3030000000.0 -0.004971087 0.003522853 -44.30366302891487 144.675999176078
3030400000.0 -0.004438567 0.003995985 -44.47711828436287 138.0036978523848
3030800000.0 -0.004139776 0.004553777 -44.21651597730089 132.27354246205655
3031200000.0 -0.003473333 0.004865499 -44.46880417371746 125.52189685065959
3031600000.0 -0.003039877 0.005227928 -44.36850299139536 120.17666503443952
3032000000.0 -0.002475699 0.00544895 -44.458727011830526 114.43439900631269
3032400000.0 -0.001867675 0.005658233 -44.49725032057853 108.26707314316006
3032800000.0 -0.00107434 0.005865677 -44.49033691005326 100.37908475844085
3033200000.0 -0.0006208525 0.005941669 -44.47466979605545 95.96526082062317
3033600000.0 0.0001073447 0.006014097 -44.41520806994152 88.977444950781
3034000000.0 0.0006572844 0.005939989 -44.47143361611866 83.6856725227252
3034400000.0 0.001301283 0.00581229 -44.50064711193931 77.38045199400256
3034800000.0 0.001861763 0.005752637 -44.370057642555665 72.06652883146414
3035200000.0 0.002479039 0.005404866 -44.5150971880977 65.36059172237469
3035600000.0 0.003046581 0.005156974 -44.45195541280941 59.42671761354806
3036000000.0 0.00354092 0.00487224 -44.40370585601275 53.99206977557756
3036400000.0 0.003991053 0.004316122 -44.61458774556683 47.24090427375893
3036800000.0 0.004486912 0.003906848 -44.51047769459387 41.04677012649131
3037200000.0 0.004807261 0.003419676 -44.583715604247665 35.426389160974324
3037600000.0 0.005116703 0.002896617 -44.61287559974216 29.514636447238328
3038000000.0 0.005366591 0.002309683 -44.66800925882795 23.286163320712127
3038400000.0 0.005724063 0.001710309 -44.474527936859204 16.635768514622974
3038800000.0 0.00582194 0.001159803 -44.52962518336483 11.266538781887382
3039200000.0 0.005846487 0.0006455951 -44.60946454048616 6.30132571870943
3039600000.0 0.005776099 -2.332948e-05 -44.76723658783129 -0.23141457128143447
3040000000.0 0.005816117 -0.0006732906 -44.64952381127173 -6.603333360665458
3040400000.0 0.005793677 -0.00132674 -44.51894075076221 -12.898222456568586
3040800000.0 0.005571561 -0.001841587 -44.6301587150898 -18.29044581688259
3041200000.0 0.005235191 -0.002433291 -44.77189054720179 -24.928773038770526
3041600000.0 0.005088386 -0.003091451 -44.50399180102782 -31.280790329411456
3042000000.0 0.004588635 -0.003542981 -44.735536417712765 -37.67248074275213
3042400000.0 0.004438522 -0.004087221 -44.38828788279309 -42.64047721324268
3042800000.0 0.003895303 -0.004414537 -44.60152366336569 -48.575434652594545
3043200000.0 0.003318714 -0.004768832 -44.71653894594223 -55.16526478152503
3043600000.0 0.002895336 -0.005018895 -44.74019194818915 -60.019905352209136
3044000000.0 0.002245914 -0.005319459 -44.77024325605165 -67.11017782642449
3044400000.0 0.001743646 -0.005617063 -44.610281177852016 -72.75463709606746
3044800000.0 0.001235395 -0.005684546 -44.70566257120764 -77.73884383322002
3045200000.0 0.0005563416 -0.00582155 -44.65974397085862 -84.54105617692328
3045600000.0 -0.0001678744 -0.005880895 -44.60759404855041 -91.63510542439577
3046000000.0 -0.0006849689 -0.005748127 -44.74823674776378 -96.79554053687697
3046400000.0 -0.001405736 -0.005576178 -44.80567712080837 -104.14925233853303
3046800000.0 -0.001780428 -0.005499895 -44.7600955327524 -107.9378231849359
3047200000.0 -0.002463028 -0.005268385 -44.70795739904341 -115.05660658256431
3047600000.0 -0.002962546 -0.005147628 -44.52536020680478 -119.92114661906443
3048000000.0 -0.003479587 -0.004661059 -44.70659533717103 -126.74217965523034
3048400000.0 -0.003930657 -0.004397851 -44.585311174404296 -131.7893145102035
3048800000.0 -0.004406644 -0.003789548 -44.713508280089194 -139.3057085064732
3049200000.0 -0.004747078 -0.003379689 -44.69070080736991 -144.550980422603
3049600000.0 -0.005069876 -0.002831764 -44.72079850213001 -150.8145892197861
3050000000.0 -0.005378932 -0.002255603 -44.682573374107044 -157.24973170976614
3050400000.0 -0.005531612 -0.001789041 -44.71091021775274 -162.07768917985334
3050800000.0 -0.005847177 -0.001172485 -44.489869567840316 -168.66133708193456
3051200000.0 -0.005868354 -0.0005594566 -44.590380629964244 -174.55419402898886
3051600000.0 -0.005851668 6.232582e-05 -44.65391379169287 179.38976862409433
3052000000.0 -0.005810592 0.0007080422 -44.65158096249822 173.05254753582122
3052400000.0 -0.005741335 0.00129992 -44.60262675742377 167.24251440798207
3052800000.0 -0.005528166 0.001877957 -44.67406864392815 161.23701331876347
3053200000.0 -0.005234277 0.002520704 -44.717055783364046 154.28563388027857
3053600000.0 -0.004893442 0.002944509 -44.86570528457587 148.9636033573119
3054000000.0 -0.004512677 0.003513907 -44.85295609354953 142.09301366360685
3054400000.0 -0.004329829 0.004032383 -44.55838507666747 137.03716651674722
3054800000.0 -0.003784944 0.004443369 -44.676364178817764 130.4249719839975
3055200000.0 -0.003313403 0.004756022 -44.736816014974934 124.86397348025724
3055600000.0 -0.002811493 0.005166626 -44.6094251460245 118.55345064442079
3056000000.0 -0.002195063 0.005365492 -44.73572761344856 112.24983779418262
3056400000.0 -0.001584909 0.005649192 -44.63122180712065 105.67172897665411
3056800000.0 -0.001028019 0.005630101 -44.84724248042707 100.34783319366278
3057200000.0 -0.0004787796 0.005820111 -44.67208408815749 94.70273180131987
3057600000.0 0.0001330896 0.005748481 -44.80661070760008 88.6737173971246
3058000000.0 0.0006674783 0.005693289 -44.8334477315609 83.3131974434918
3058400000.0 0.001300423 0.005548439 -44.884337855459435 76.80931480150149
3058800000.0 0.002009865 0.005501294 -44.64657857079415 69.93052491458515
3059200000.0 0.00252023 0.005176859 -44.79497754892002 64.04197276200901
3059600000.0 0.003036332 0.004957851 -44.71088457932463 58.51548667036855
3060000000.0 0.003548542 0.004579333 -44.741464597540926 52.22776366427529
3060400000.0 0.003997433 0.004155848 -44.78201255567443 46.11309410458249
3060800000.0 0.004471249 0.003657883 -44.7661547907893 39.28624705150769
3061200000.0 0.004673428 0.003283452 -44.86489598902171 35.09106873227273
3061600000.0 0.005080604 0.002690223 -44.80830680789643 27.901599990872906
3062000000.0 0.005352919 0.00214194 -44.78317443368539 21.808536287244234
3062400000.0 0.005498636 0.001553783 -44.86126930687249 15.779022708539948
3062800000.0 0.005632905 0.001060906 -44.83396674185245 10.666187993247558
3063200000.0 0.005783208 0.0004612173 -44.72908904654091 4.559751738876408
3063600000.0 0.005721001 -0.0001019794 -44.849179789854965 -1.0212147265825084
3064000000.0 0.005707552 -0.0007362581 -44.79932936866866 -7.350402314832995
3064400000.0 0.00558369 -0.001453873 -44.77668714487811 -14.594529265762803
3064800000.0 0.005412482 -0.001941333 -44.80648085652908 -19.73174444588754
3065200000.0 0.005110779 -0.002527079 -44.880339270406736 -26.310582954216546
3065600000.0 0.004993017 -0.003133045 -44.5909281317718 -32.107668729194835
3066000000.0 0.004522989 -0.003698229 -44.66808652441244 -39.2712031906857
3066400000.0 0.004170584 -0.003975898 -44.788418266189055 -43.63099638669224
3066800000.0 0.003655514 -0.004428798 -44.8178840364794 -50.46385673714395
3067200000.0 0.003223429 -0.004788633 -44.77275449768082 -56.05385514518701
3067600000.0 0.002768531 -0.005036498 -44.81077278742599 -61.20268378335358
3068000000.0 0.002233791 -0.005375848 -44.69934019093759 -67.43596877724393
3068400000.0 0.001607273 -0.005512484 -44.81870431453238 -73.74491856527847
3068800000.0 0.0009172926 -0.005689481 -44.78709942915866 -80.84124165863443
3069200000.0 0.000389914 -0.005776725 -44.74662503846352 -86.13854007424503
3069600000.0 -0.0003101172 -0.005706302 -44.86009681329996 -93.11076147779352
3070000000.0 -0.0008236945 -0.005684049 -44.81658684845739 -98.24552391163216
3070400000.0 -0.001428446 -0.005572489 -44.8026265819085 -104.3775612094184
3070800000.0 -0.002014466 -0.00533844 -44.87355421732143 -110.67405215628742
3071200000.0 -0.00251354 -0.005246657 -44.7050172175344 -115.59789644109816
3071600000.0 -0.00298344 -0.00482236 -44.92737031856059 -121.74375439824914
3072000000.0 -0.003613118 -0.004476496 -44.80255486434512 -128.90806955099484
3072400000.0 -0.00402594 -0.004095633 -44.817177120005894 -134.50834441162613
3072800000.0 -0.004442785 -0.003677308 -44.7806557672084 -140.38532869590188
3073200000.0 -0.004727679 -0.00309676 -44.95653242145757 -146.77409655121323
3073600000.0 -0.005056859 -0.002678991 -44.84804400522514 -152.0865329701286
3074000000.0 -0.005439248 -0.002063079 -44.705476521294486 -159.22851918161174
3074400000.0 -0.005593026 -0.001478211 -44.75382598631206 -165.19550154556262
3074800000.0 -0.005693201 -0.000892495 -44.78743090858144 -171.0905356219273
3075200000.0 -0.00588659 -0.0002747045 -44.593276756884784 -177.3281648668279
3075600000.0 -0.005798414 0.0002982627 -44.722339613695496 177.0553766131806
3076000000.0 -0.005689939 0.0008990733 -44.790746860738295 171.0208707215717
3076400000.0 -0.005452364 0.001401441 -44.99046103759909 165.58509625819653
3076800000.0 -0.005414927 0.001974809 -44.78583311560929 159.96322623373712
3077200000.0 -0.005201467 0.002552956 -44.74011876718087 153.85752102309755
3077600000.0 -0.004843289 0.003163239 -44.75428257084404 146.8507256714898
3078000000.0 -0.004406077 0.003607019 -44.89132061858706 140.69465255364568
3078400000.0 -0.004069003 0.004083374 -44.78460136002557 134.89899917600812
3078800000.0 -0.003566526 0.004475755 -44.847556702753415 128.54975072164086
3079200000.0 -0.003065084 0.004899378 -44.76271156098597 122.03037581713042
3079600000.0 -0.002598396 0.005148421 -44.781051694686994 116.7799709135186
3080000000.0 -0.001982426 0.005371408 -44.843640672111476 110.25759500604772
3080400000.0 -0.001438703 0.005503502 -44.90012952873995 104.65017894299429
3080800000.0 -0.0009241467 0.005716407 -44.74548881990712 99.18330569081155
3081200000.0 -0.0003716794 0.005681491 -44.892206739415016 93.7429187360628
3081600000.0 0.0003735341 0.005765978 -44.76435220441363 86.29341926281872
3082000000.0 0.0009837735 0.005670082 -44.79940616654655 80.15702552127996
3082400000.0 0.001586046 0.005571312 -44.74241989142304 74.10936018003967
3082800000.0 0.002156188 0.005374098 -44.745654621246516 68.13842630953594
3083200000.0 0.002653529 0.005119462 -44.78206948561321 62.60130602658281
3083600000.0 0.003079461 0.004893386 -44.7588562325338 57.817346686326204
3084000000.0 0.003636675 0.004389772 -44.88176732595879 50.36019521667688
3084400000.0 0.004177443 0.004004212 -44.751530201381144 43.787051960426126
3084800000.0 0.004618536 0.003639089 -44.61252337770847 38.235680932778365
3085200000.0 0.004866052 0.003160669 -44.72778933042381 33.00511692746351
3085600000.0 0.005146705 0.002503532 -44.84705891471943 25.939861002098187
3086000000.0 0.005350056 0.002026255 -44.85069804623667 20.743445090331445
3086400000.0 0.005603952 0.001369301 -44.77826296904915 13.730924004302445
3086800000.0 0.005702945 0.0008212529 -44.78887582304411 8.194546998278389
3087200000.0 0.005652071 0.0002659273 -44.9462446539351 2.69375314726183
3087600000.0 0.005853751 -0.0005305269 -44.615788544944465 -5.178582895821351
3088000000.0 0.005679718 -0.001001339 -44.780532552208896 -9.99854687212334
3088400000.0 0.005626476 -0.001603831 -44.6559936785237 -15.910239297241835
3088800000.0 0.005369812 -0.002170282 -44.74372140675037 -22.006761066866808
3089200000.0 0.005033015 -0.002811405 -44.78401206024192 -29.187402984159593
3089600000.0 0.004813284 -0.003332831 -44.65016640320148 -34.69963911746515
3090000000.0 0.00453031 -0.003754051 -44.60715494804897 -39.64691625048891
3090400000.0 0.00400775 -0.004159106 -44.767710577778374 -46.061738733099446
3090800000.0 0.003466512 -0.004542482 -44.86105532636 -52.65159951109531
3091200000.0 0.003033892 -0.00491186 -44.771533590334336 -58.297758755043354
3091600000.0 0.002468069 -0.005143016 -44.875560506604096 -64.36423399088909
3092000000.0 0.001984532 -0.005392697 -44.81228873493029 -69.79620232375196
3092400000.0 0.001354592 -0.005660686 -44.70078576697095 -76.54229270159173
3092800000.0 0.0005954064 -0.00579116 -44.69902252198956 -84.12987575468908
3093200000.0 7.659939e-05 -0.005764074 -44.78464214795998 -89.23863513344058
3093600000.0 -0.0005213697 -0.005823396 -44.661800760955785 -95.11606110337677
3094000000.0 -0.001020973 -0.005680871 -44.77364338484605 -100.18850068119266
3094400000.0 -0.001743059 -0.005576693 -44.667649856067555 -107.35722982247397
3094800000.0 -0.002297443 -0.005411929 -44.613355483432855 -113.0019325354976
3095200000.0 -0.002758 -0.005125279 -44.7012007012059 -118.28545215625324
3095600000.0 -0.003345704 -0.00484755 -44.59764700248626 -124.61283743820985
3096000000.0 -0.003799464 -0.004377777 -44.7364963080578 -130.95464822329228
3096400000.0 -0.004339995 -0.004084302 -44.49562753501176 -136.73849918866318
3096800000.0 -0.004753892 -0.003452408 -44.61946698994454 -144.01180841854196
3097200000.0 -0.005040837 -0.002923174 -44.69096471186975 -149.8906170999546
3097600000.0 -0.005338286 -0.002371799 -44.66956256791562 -156.04443550476628
3098000000.0 -0.0055387 -0.001770312 -44.70939386205836 -162.2747735780002
3098400000.0 -0.005664718 -0.001370691 -44.68932275498349 -166.39759700699832
3098800000.0 -0.005795585 -0.0006602053 -44.682059949046945 -173.50115358964337
3099200000.0 -0.005859976 -4.824007e-05 -44.641788950936494 -179.5283444878987
3099600000.0 -0.005764072 0.0005549967 -44.745334533834296 174.50019999678912
3100000000.0 -0.005830164 0.001115014 -44.530372058259566 169.1729705742709
3100400000.0 -0.005599877 0.001792595 -44.6127525386359 162.2494409355656
3100800000.0 -0.005371675 0.002333615 -44.646976338361206 156.51844346671223
3101200000.0 -0.005041929 0.002941211 -44.67605302219653 149.7428357902793
3101600000.0 -0.004778797 0.003429831 -44.60915849816501 144.3322968677147
3102000000.0 -0.004398676 0.003870702 -44.643175370110356 138.65319825331275
3102400000.0 -0.003936561 0.004273354 -44.71622430284967 132.65088874219236
3102800000.0 -0.003456167 0.004740759 -44.631905695298556 126.09326182396431
3103200000.0 -0.002981897 0.00500194 -44.6965794979019 120.8012028418478
3103600000.0 -0.002394303 0.005240614 -44.78904799069917 114.55445298466691
3104000000.0 -0.001760098 0.005478183 -44.80061361153206 107.81181183817338
3104400000.0 -0.001156069 0.005772236 -44.60231540653222 101.3254106234259
