## frequency[GHz]  I  Q  LogM[dB] Phase[deg]
3000000000.0 -0.003577228 -0.005675119 -43.46753363328506 -122.22467961064841
3000400000.0 -0.004224858 -0.00520289 -43.475651883108156 -129.07733729401576
3000800000.0 -0.004787161 -0.004730477 -43.43956226382103 -135.34123125583608
3001200000.0 -0.005232784 -0.004185339 -43.47762451995771 -141.34612226494232
3001600000.0 -0.005613567 -0.003602443 -43.517402295875854 -147.31014142386226
3002000000.0 -0.006004458 -0.002992042 -43.46731212992473 -153.51276675255147
3002400000.0 -0.006305473 -0.00249175 -43.37546207061442 -158.43742730786064
3002800000.0 -0.006485261 -0.001727341 -43.463792756264006 -165.0855914636167
3003200000.0 -0.006544991 -0.001032696 -43.57502159881034 -171.03355417474745
3003600000.0 -0.006761881 -0.0002517815 -43.39263230847986 -177.86755257334292
3004000000.0 -0.006569282 0.0003309675 -43.63863236924797 177.11581555405454
3004400000.0 -0.00655544 0.001177978 -43.52994504212349 169.8129691251941
3004800000.0 -0.006326424 0.001803059 -43.63766311662664 164.09221219529638
3005200000.0 -0.006213757 0.00251295 -43.475052076469474 157.98074664804656
3005600000.0 -0.005859163 0.003145818 -43.54322712066626 151.76839545473243
3006000000.0 -0.00558492 0.00377013 -43.428942958358405 145.97847228281614
3006400000.0 -0.005033124 0.004126498 -43.73040737610982 140.65276522212346
3006800000.0 -0.004580129 0.004671641 -43.6853785209898 134.43328893942748
3007200000.0 -0.003977336 0.00518449 -43.69591061268018 127.49399595587154
3007600000.0 -0.003519908 0.005552433 -43.64322627676824 122.37223504976825
3008000000.0 -0.002801839 0.005814809 -43.80256700946436 115.72687854606397
3008400000.0 -0.002260331 0.006200931 -43.60905733226148 110.02754562850826
3008800000.0 -0.001602517 0.006256928 -43.796847575954196 104.36572538699978
3009200000.0 -0.0009193798 0.006291557 -43.933075517490735 98.31373967692309
3009600000.0 -0.0002272156 0.00647787 -43.766015585181194 92.00886401894654
3010000000.0 0.0004215401 0.006392009 -43.86840533915632 86.22692246143576
3010400000.0 0.001083858 0.006205034 -44.014590369548074 80.09187986708785
3010800000.0 0.001756272 0.00632049 -43.661975168552445 74.47100519392498
3011200000.0 0.002369861 0.005954416 -43.86461433567112 68.29741590922774
3011600000.0 0.003039313 0.005590603 -43.92627925134221 61.4694306332285
3012000000.0 0.003701541 0.005271454 -43.820604062312185 54.924008099323686
3012400000.0 0.004161725 0.00490855 -43.82854728593911 49.70698121989849
3012800000.0 0.004646739 0.004444495 -43.83569449847592 43.725605713974005
3013200000.0 0.005089485 0.003855931 -43.89647981891068 37.148550237748466
3013600000.0 0.005547394 0.003367783 -43.75557600417733 31.26163639488384
3014000000.0 0.005880514 0.002711415 -43.774521836068246 24.753703589749495
3014400000.0 0.006010058 0.002038616 -43.94945555236244 18.736973228627697
3014800000.0 0.006244719 0.001480866 -43.852136960789416 13.340633840014487
3015200000.0 0.006300796 0.0008062632 -43.941554859998945 7.2920607963690935
3015600000.0 0.006393239 0.0001961177 -43.88149638951113 1.7570426956028742
3016000000.0 0.006245941 -0.0005721893 -44.0517470165393 -5.234244017427531
3016400000.0 0.006260143 -0.001117331 -43.9321227657573 -10.119778391289199
3016800000.0 0.006006259 -0.00184604 -44.03589736737348 -17.084952739335538
3017200000.0 0.005797537 -0.002477613 -44.00662851229369 -23.13973824543797
3017600000.0 0.005391685 -0.003047927 -44.161199734429985 -29.479536172174516
3018000000.0 0.005082787 -0.003601138 -44.111356074839634 -35.31744727100232
3018400000.0 0.004836421 -0.004178806 -43.88771924749585 -40.82795332080354
3018800000.0 0.004307975 -0.00461348 -43.99649643817189 -46.96126191301566
3019200000.0 0.003692923 -0.005110783 -44.00577839302769 -54.14907304005911
3019600000.0 0.003251225 -0.005363164 -44.052319738715866 -58.77517063790768
3020000000.0 0.002486378 -0.005614217 -44.23641277418086 -66.11280130015801
3020400000.0 0.001977857 -0.005971233 -44.02660929591242 -71.67353294036924
3020800000.0 0.001431109 -0.00607519 -44.09425570307532 -76.74471337903128
3021200000.0 0.0007389241 -0.006225433 -44.05585073945298 -83.23098080890513
3021600000.0 -8.293861e-06 -0.006107573 -44.28261866079978 -90.07780552750933
3022000000.0 -0.0005768207 -0.006095123 -44.26162800970494 -95.40616726050213
3022400000.0 -0.001221072 -0.006133485 -44.07704909877107 -101.25939878530592
3022800000.0 -0.001825697 -0.005762942 -44.37175955090385 -107.5781743642844
3023200000.0 -0.002497733 -0.005642475 -44.193464660739146 -113.8773531519863
3023600000.0 -0.002973436 -0.005298567 -44.327837874400856 -119.30015521813318
3024000000.0 -0.003572783 -0.004942045 -44.2959032085769 -125.86452678787039
3024400000.0 -0.004166554 -0.004550213 -44.19478608894405 -132.47981525334828
3024800000.0 -0.00469033 -0.00406957 -44.13856267879311 -139.05342202193438
3025200000.0 -0.004988308 -0.003642143 -44.185234180036126 -143.86547473502378
3025600000.0 -0.005368279 -0.002964274 -44.24750483063774 -151.0932535563467
3026000000.0 -0.005555753 -0.00253888 -44.28147943892707 -155.44044493134854
3026400000.0 -0.005839911 -0.001862619 -44.25113608907111 -162.31010092171203
3026800000.0 -0.005954863 -0.001344166 -44.28673520437013 -167.28004316519397
3027200000.0 -0.005999572 -0.000696245 -44.37949678991272 -173.38048559670153
3027600000.0 -0.00607307 -2.797712e-05 -44.331742095179635 -179.73605448980868
3028000000.0 -0.006065738 0.0006986847 -44.285085119185496 173.42931757577313
3028400000.0 -0.005943441 0.001358312 -44.29813252789497 167.12672814854864
3028800000.0 -0.005690281 0.001874181 -44.45004128345375 161.76991156542192
3029200000.0 -0.005400757 0.002383486 -44.57807415378169 156.18696065230256
3029600000.0 -0.005239136 0.003101478 -44.310042221316536 149.3752002567053
3030000000.0 -0.004825416 0.003562256 -44.440075588316354 143.5642273215835
3030400000.0 -0.004423272 0.004070685 -44.420621872448216 137.37700234758734
3030800000.0 -0.004098699 0.004534887 -44.27540434476228 132.1077487130457
3031200000.0 -0.003512237 0.004810098 -44.50103899012675 126.13616871560062
3031600000.0 -0.003010556 0.005287742 -44.315206171005954 119.65485992873097
3032000000.0 -0.002400093 0.005409966 -44.55582445469112 113.92412768583074
3032400000.0 -0.001866297 0.00564849 -44.51137798966513 108.283883440121
3032800000.0 -0.001301581 0.005811196 -44.50210909539485 102.62464543842054
3033200000.0 -0.0005898343 0.00597006 -44.4382393466621 95.64243838743069
3033600000.0 0.0001105112 0.006004556 -44.428911182733685 88.94561553385192
3034000000.0 0.0007011099 0.00584283 -44.60544780784034 83.15751369639904
3034400000.0 0.001265188 0.005763706 -44.581586669265164 77.61939249903735
3034800000.0 0.001854193 0.005693119 -44.45515254081001 71.96007865726223
3035200000.0 0.002477891 0.005467969 -44.43231741528467 65.62164017329391
3035600000.0 0.003118773 0.005134043 -44.426715747183046 58.722608271976235
3036000000.0 0.003502244 0.004795715 -44.5266109460577 53.85986367806679
3036400000.0 0.00405764 0.004439268 -44.41632967834004 47.5716400256985
3036800000.0 0.004499864 0.00395073 -44.4542552130606 41.28204988733459
3037200000.0 0.004901237 0.003413616 -44.47637255961961 34.85645908953846
3037600000.0 0.00518836 0.002881069 -44.532151112870864 29.043183499921703
3038000000.0 0.005434892 0.002374746 -44.53735403401961 23.602656313450357
3038400000.0 0.005686013 0.001791758 -44.492686391674596 17.49051315009503
3038800000.0 0.005873436 0.00110202 -44.47189493320466 10.626730004471282
3039200000.0 0.005926733 0.0005375146 -44.50811699266423 5.18216251850849
3039600000.0 0.005851683 -0.0001123926 -44.652782338029496 -1.1003381310036817
3040000000.0 0.005812509 -0.0006677163 -44.65579069528047 -6.553169921603743
3040400000.0 0.005757613 -0.001333729 -44.568145875827376 -13.042312062259345
3040800000.0 0.005563565 -0.001785569 -44.66717247442233 -17.79349905877848
3041200000.0 0.005423161 -0.002445973 -44.510769898983455 -24.276493077068785
3041600000.0 0.004998634 -0.002884552 -44.774647162671215 -29.987871256215218
3042000000.0 0.004597602 -0.003542248 -44.72557452627498 -37.6126536095842
3042400000.0 0.004271984 -0.003947384 -44.70676336301267 -42.73844530097955
3042800000.0 0.003880396 -0.004433573 -44.59494807127761 -48.806612730630235
3043200000.0 0.00334932 -0.004629238 -44.861462260592646 -54.113723019560055
3043600000.0 0.002852072 -0.005071668 -44.70362673614883 -60.648608164878056
3044000000.0 0.002232037 -0.005362266 -44.71907881818791 -67.40053642629
3044400000.0 0.001759618 -0.005490799 -44.7827197538383 -72.23107778002424
3044800000.0 0.001173319 -0.00568047 -44.730869942080446 -78.32949964893638
3045200000.0 0.000606317 -0.005799106 -44.685562021482895 -84.03121014653718
3045600000.0 -2.651385e-05 -0.005786849 -44.75106582860838 -90.26251265131042
3046000000.0 -0.0007679442 -0.00564804 -44.88249030340194 -97.74282568067177
3046400000.0 -0.001204765 -0.005579748 -44.869816555978794 -102.18411458799905
3046800000.0 -0.001899075 -0.005499733 -44.70395796739986 -109.0499534430088
3047200000.0 -0.002456863 -0.005263994 -44.717801606309806 -115.01986498538781
3047600000.0 -0.003038753 -0.005028401 -44.6194385225136 -121.14532217108257
3048000000.0 -0.003546028 -0.004621018 -44.69440179749572 -127.50153093489008
3048400000.0 -0.004012355 -0.004240174 -44.675250323168925 -133.41869651819377
3048800000.0 -0.004421452 -0.003771724 -44.71402845719464 -139.53413059560762
3049200000.0 -0.004719008 -0.003337372 -44.76161374099995 -144.73132506218326
3049600000.0 -0.005079714 -0.002731412 -44.78024146226956 -151.73264494821078
3050000000.0 -0.005279101 -0.002274198 -44.809483429282025 -156.6939768378483
3050400000.0 -0.005531209 -0.001655865 -44.77084403357562 -163.33400136533425
3050800000.0 -0.005752604 -0.001202892 -44.61685186585029 -168.18940324546423
3051200000.0 -0.005757065 -0.0005069335 -44.76243404263539 -174.96784736299972
3051600000.0 -0.005886567 0.0001469773 -44.60005156313631 178.5697215934113
3052000000.0 -0.005770006 0.0007401853 -44.705588202545066 172.68993279681357
3052400000.0 -0.005711039 0.001297324 -44.64718338936768 167.20183385836063
3052800000.0 -0.005510221 0.002019884 -44.629057510154 159.8685579578322
3053200000.0 -0.005241066 0.002504616 -44.71830799072747 154.45766051343745
3053600000.0 -0.004936575 0.00302023 -44.75064597309141 148.5414229764305
3054000000.0 -0.004621161 0.003589169 -44.655009597873565 142.16418363252626
3054400000.0 -0.004228209 0.003879854 -44.823948382960296 137.4601441637146
3054800000.0 -0.003771894 0.004340615 -44.80590456620951 130.9898856663985
3055200000.0 -0.003312333 0.004832724 -44.64367045161829 124.4266100856931
3055600000.0 -0.00282 0.005164868 -44.60569312042821 118.63438705842171
3056000000.0 -0.002178252 0.00542162 -44.6675244580982 111.88885190883114
3056400000.0 -0.00157837 0.005571906 -44.74470760398579 105.81598890783962
3056800000.0 -0.001120092 0.005702019 -44.7149946110456 101.11354899238057
3057200000.0 -0.0004448697 0.005758131 -44.76852314337756 94.417860945363
3057600000.0 0.0002153563 0.005788462 -44.74272905976504 87.86932716860689
3058000000.0 0.0008379715 0.005776238 -44.676645584411474 81.7455617699666
3058400000.0 0.001377132 0.005602031 -44.778265497686306 76.18899268992851
3058800000.0 0.002005719 0.005528748 -44.61049900599719 70.06024290221481
3059200000.0 0.002606389 0.005203461 -44.70194163831472 63.39392738829165
3059600000.0 0.003093565 0.004863248 -44.78583043348047 57.53911628114995
3060000000.0 0.003529197 0.004618851 -44.71224455195529 52.617079910651825
3060400000.0 0.003998898 0.004097816 -44.84347581305368 45.69995086508834
3060800000.0 0.004532039 0.003704179 -44.65208590489722 39.260216955664944
3061200000.0 0.004854336 0.00320939 -44.70251970030104 33.47023868156193
3061600000.0 0.004996565 0.00263501 -44.9608762943998 27.805563962325497
3062000000.0 0.005300352 0.002158607 -44.84744731325192 22.158968810508032
3062400000.0 0.005546681 0.001536574 -44.798214349764045 15.484106902412512
3062800000.0 0.005626586 0.0009142514 -44.88192471616502 9.229203424968052
3063200000.0 0.00575491 0.000406058 -44.77766154120847 4.0360171681421075
3063600000.0 0.005770064 -0.0002413261 -44.76879721479368 -2.3949324093983795
3064000000.0 0.005669181 -0.0008698196 -44.8285427523666 -8.722840200420151
3064400000.0 0.005608931 -0.001413339 -44.75504772795485 -14.142971437107189
3064800000.0 0.0054082 -0.002072647 -44.74378770020641 -20.96890868598752
3065200000.0 0.005206472 -0.002417254 -44.82138418121767 -24.90443771864107
3065600000.0 0.004848148 -0.003102226 -44.79800257295855 -32.61430697509661
3066000000.0 0.004454605 -0.003499324 -44.93646873257035 -38.15147809400223
3066400000.0 0.004195334 -0.00401119 -44.72492896980539 -43.71457101519478
3066800000.0 0.00361664 -0.004488082 -44.78561612265375 -51.13702194280526
3067200000.0 0.003065496 -0.00483597 -44.84339760318214 -57.629604208074056
3067600000.0 0.002637341 -0.005149496 -44.75306963480581 -62.88050997454625
3068000000.0 0.002097886 -0.005452827 -44.66807116379397 -68.95658662683888
3068400000.0 0.001500807 -0.005553479 -44.8025663426013 -74.87727406317155
3068800000.0 0.0008702542 -0.005673881 -44.82141049067106 -81.27998658931787
3069200000.0 0.0003003109 -0.005718821 -44.84191036961736 -86.99400330122279
3069600000.0 -0.0002981034 -0.005819452 -44.69097707722463 -92.93243257089205
3070000000.0 -0.0008349984 -0.005643474 -44.87502098115583 -98.41632067757769
3070400000.0 -0.001330674 -0.005590167 -44.81214245505014 -103.38941187918647
3070800000.0 -0.00209295 -0.00535418 -44.80858981552779 -111.35053805464372
3071200000.0 -0.002660061 -0.005134844 -44.75700648343948 -117.38602000876608
3071600000.0 -0.002981671 -0.004867483 -44.870122277258 -121.49035961517689
3072000000.0 -0.00357776 -0.004537094 -44.764409628227156 -128.25781451946222
3072400000.0 -0.004050328 -0.004172051 -44.7093984621508 -134.15186289029728
3072800000.0 -0.004474164 -0.00374239 -44.68219398943624 -140.0893880780837
3073200000.0 -0.004805352 -0.003231663 -44.7450099531427 -146.078644567827
3073600000.0 -0.005100518 -0.002560212 -44.87182650084585 -153.34557442459243
3074000000.0 -0.005350539 -0.002053187 -44.83546013409768 -159.00646339920993
3074400000.0 -0.005587451 -0.001404992 -44.789454972805025 -165.8853266563231
3074800000.0 -0.005774011 -0.0009454767 -44.65553400594707 -170.70052052300562
3075200000.0 -0.00576062 -0.0002811209 -44.7802850812043 -177.2061560877967
3075600000.0 -0.00572633 0.0003567237 -44.82565146545273 176.435346044716
3076000000.0 -0.005738743 0.0009437312 -44.707776049416 170.6613445403329
3076400000.0 -0.005597486 0.001445531 -44.759752397110184 165.51993208365388
3076800000.0 -0.005378459 0.002090067 -44.7760531176698 158.76389366317284
3077200000.0 -0.005061953 0.002626159 -44.87848404486593 152.57955705012495
3077600000.0 -0.004824862 0.003165735 -44.77540489387561 146.7299322313987
3078000000.0 -0.004468574 0.003642146 -44.784254724689596 140.817976757816
3078400000.0 -0.004115882 0.004034656 -44.78614312461048 135.5709749377709
3078800000.0 -0.003562878 0.004520603 -44.79779204791449 128.24313600379676
3079200000.0 -0.003098289 0.004804394 -44.8569673714967 122.81742477672925
3079600000.0 -0.002519851 0.00521517 -44.7433793295408 115.78877222722703
3080000000.0 -0.001985673 0.005419869 -44.77322676301355 110.12127760716722
3080400000.0 -0.001433033 0.005629667 -44.71768250289095 104.28135241588798
3080800000.0 -0.0008152298 0.005722295 -44.76133147661639 98.108112239186
3081200000.0 -0.0001805022 0.005633906 -44.979352455696954 91.83504620864534
3081600000.0 0.000372766 0.005796317 -44.719032547542675 86.32032775719587
3082000000.0 0.001088314 0.005830621 -44.53697145508913 79.42712786987262
3082400000.0 0.001657218 0.005531027 -44.770522355119866 73.32062140665208
3082800000.0 0.00211831 0.005364017 -44.78078856753132 68.45038499181393
3083200000.0 0.002621078 0.005045997 -44.90365608369886 62.55096177222501
3083600000.0 0.003169472 0.004723422 -44.90041574075042 56.137921697519324
3084000000.0 0.003753356 0.004458557 -44.68950329617746 49.90825399818904
3084400000.0 0.004081675 0.004020153 -44.83838915859475 44.56492742170816
3084800000.0 0.004531569 0.00358974 -44.75976000186117 38.38495262306323
3085200000.0 0.00485578 0.002996719 -44.873299536996626 31.68059110622353
3085600000.0 0.005115692 0.002705209 -44.751048186314755 27.870157958147132
3086000000.0 0.005481781 0.001959151 -44.69951555200847 19.66654171287337
3086400000.0 0.005596323 0.001436086 -44.76498391900333 14.392262730470677
3086800000.0 0.00572734 0.0008651751 -44.742951597090354 8.590183957447728
3087200000.0 0.005727374 0.0001722213 -44.83696402727149 1.7223567339582735
3087600000.0 0.005720861 -0.0004757741 -44.82083802870376 -4.754050302861554
3088000000.0 0.005701163 -0.001027902 -44.74180091540495 -10.220449973420322
3088400000.0 0.005430466 -0.001614759 -44.93530042617098 -16.55994206487581
3088800000.0 0.005369181 -0.0022165 -44.71842347974022 -22.431765933460973
3089200000.0 0.0051267 -0.002716295 -44.72868968274548 -27.916120529222354
3089600000.0 0.004810533 -0.003333532 -44.65292975036252 -34.72061255075706
3090000000.0 0.0044377 -0.003838122 -44.63134102758676 -40.8561975225853
3090400000.0 0.003936774 -0.004235317 -44.75784389527402 -47.09220020905893
3090800000.0 0.00343851 -0.004651091 -44.755260038632436 -53.52481436297795
3091200000.0 0.003045219 -0.005055648 -44.58009924926386 -58.93776292338093
3091600000.0 0.002520371 -0.005246152 -44.70128634840084 -64.33930927759079
3092000000.0 0.001949838 -0.005515983 -44.65619280073301 -70.53207095697434
3092400000.0 0.001439753 -0.005646099 -44.69143302536283 -75.69446954436033
3092800000.0 0.0007498026 -0.005743401 -44.7432224582618 -82.56208539942203
3093200000.0 9.578229e-05 -0.005829004 -44.68694044783384 -89.05859952818896
3093600000.0 -0.0004366323 -0.005823503 -44.671967820995135 -94.28787729014194
3094000000.0 -0.001126823 -0.005720017 -44.68670243332576 -101.14436502408293
3094400000.0 -0.001715229 -0.005601742 -44.64433436690933 -107.02435997733288
3094800000.0 -0.002371829 -0.005354366 -44.64771623351944 -113.89195483296214
3095200000.0 -0.002720932 -0.005137139 -44.71164666197005 -117.90833515638685
3095600000.0 -0.003272794 -0.004769069 -44.75536373484604 -124.46002818883984
3096000000.0 -0.003762102 -0.00434379 -44.8119763931841 -130.89542597406282
3096400000.0 -0.004244579 -0.003925845 -44.75880384259603 -137.23401594118377
3096800000.0 -0.004637708 -0.003399975 -44.80589897556213 -143.75428429403127
3097200000.0 -0.005028035 -0.002903619 -44.722136877450026 -149.99417474821092
3097600000.0 -0.005257448 -0.002377325 -44.77654457389923 -155.66835847539275
3098000000.0 -0.005602181 -0.001881715 -44.56860062400522 -161.43332934756722
3098400000.0 -0.005761213 -0.001230703 -44.59592870967255 -167.94178558866435
3098800000.0 -0.00586728 -0.0006355141 -44.58060830566022 -173.8181112899089
3099200000.0 -0.005815106 4.522286e-05 -44.708584640808596 179.55443171928817
3099600000.0 -0.005791171 0.0006486353 -44.6905291716564 173.60926873354697
3100000000.0 -0.005714951 0.001307457 -44.638190938510924 167.11373244236944
3100400000.0 -0.005486935 0.001751912 -44.79180541713855 162.2923460359034
3100800000.0 -0.005453107 0.002418513 -44.4872593809102 156.08218653865026
3101200000.0 -0.005069913 0.002876543 -44.68795574074225 150.43049758803525
3101600000.0 -0.004710183 0.003405235 -44.71321722173769 144.13488665096583
3102000000.0 -0.004332523 0.003941396 -44.64638044477155 137.70648718976528
3102400000.0 -0.003898394 0.004405084 -44.608957755719196 131.50806021769677
3102800000.0 -0.003406646 0.004588661 -44.85969900827371 126.59038661018094
3103200000.0 -0.002965697 0.005019865 -44.68592577366667 120.57426183865729
3103600000.0 -0.002396424 0.005400157 -44.57118036153542 113.93017960313112
3104000000.0 -0.001711147 0.005525727 -44.75452220258578 107.20613851557516
3104400000.0 -0.001171602 0.005630121 -44.80553805735652 101.75522006831724
